0,001
-0,44556456
-0,44337338
-0,43811268
-0,43090156
-0,4216625
-0,41041826
-0,39816866
-0,38588894
-0,37461708
-0,3663771
-0,3611426
-0,3598529
-0,35950168
-0,35917294
-0,35985004
-0,36251566
-0,36724538
-0,3699861
-0,36973472
-0,36744822
-0,36711376
-0,36580036
-0,365492
-0,36213408
-0,35771326
-0,35333076
-0,35193928
-0,35054138
-0,34914738
-0,34778194
-0,34944024
-0,35405866
-0,35662778
-0,35721746
-0,3588065
-0,35941322
-0,35898466
-0,35553314
-0,3520346
-0,34552788
-0,34203282
-0,33752084
-0,33405704
-0,33059696
-0,33014478
-0,32870428
-0,33129992
-0,33390942
-0,33653406
-0,3361404
-0,33577942
-0,33835896
-0,3379624
-0,33454674
-0,32914676
-0,32177208
-0,31941382
-0,31704702
-0,31470834
-0,31036042
-0,30899854
-0,30966088
-0,31330278
-0,31492596
-0,31653974
-0,31815402
-0,32269286
-0,32525336
-0,3257977
-0,32429674
-0,32177192
-0,32118622
-0,31762924
-0,31007412
-0,30051278
-0,2919586
-0,28739318
-0,28285086
-0,27834278
-0,27384388
-0,2703047
-0,27275676
-0,27519908
-0,27759462
-0,27805664
-0,2795365
-0,28205174
-0,28261592
-0,28016794
-0,27872628
-0,27931416
-0,27985718
-0,28035382
-0,27791076
-0,27947642
-0,28300994
-0,28951268
-0,29597806
-0,29942762
-0,30290434
-0,30836918
-0,31183236
-0,31530496
-0,31278542
-0,3082387
-0,30468454
-0,299111
-0,29157974
-0,285007
-0,27943278
-0,27981902
-0,28021208
-0,2806202
-0,28296866
-0,2873004
-0,29765
-0,30494686
-0,30928514
-0,31365106
-0,31601776
-0,32137664
-0,32370352
-0,32203106
-0,31738612
-0,3157662
-0,3171296
-0,31753914
-0,31592728
-0,31727896
-0,32160678
-0,33191746
-0,34126426
-0,3456295
-0,34900838
-0,35135544
-0,35568022
-0,3560617
-0,35143678
-0,34477524
-0,34014978
-0,3404798
-0,33582554
-0,33114628
-0,3274971
-0,3288477
-0,33216192
-0,33350554
-0,3319125
-0,33129314
-0,33261456
-0,33194854
-0,3282601
-0,32062654
-0,31293926
-0,30627026
-0,2986257
-0,29002054
-0,27933804
-0,27260562
-0,26782954
-0,26209334
-0,2543605
-0,24965548
-0,24597826
-0,24832404
-0,24667246
-0,24403746
-0,24239556
-0,2427253
-0,24504278
-0,24340724
-0,23975416
-0,23610096
-0,23243328
-0,22977786
-0,22314334
-0,21647808
-0,21077306
-0,2091078
-0,207458
-0,20377896
-0,20015208
-0,200494
-0,20387152
-0,20531662
-0,20381984
-0,20132804
-0,1988385
-0,19631542
-0,19380654
-0,19026836
-0,18476112
-0,1822208
-0,17764912
-0,17706516
-0,17747502
-0,1789302
-0,18237534
-0,18684368
-0,19431202
-0,19972752
-0,20407996
-0,206419
-0,20969378
-0,2109032
-0,20814042
-0,20136318
-0,19364902
-0,18490512
-0,17722962
-0,16856292
-0,15886532
-0,14910718
-0,13934314
-0,1305762
-0,12178158
-0,10993944
-0,0960882
-0,08423888
-0,06934632
-0,05349502
-0,0346532
-0,01484834
0,00192906
0,01970156
0,03842206
0,0540788
0,07077878
0,08342566
0,09507446
0,1057291
0,1163642
0,12906978
0,14176964
0,15344506
0,16711
0,18370746
0,20027308
0,2148114
0,2303565
0,24794352
0,26457386
0,27817696
0,28876848
0,29633242
0,30394882
0,3094934
0,31405736
0,31059668
0,30814484
0,30769912
0,3062812
0,30481274
0,29930246
0,2978155
0,30133076
0,30285098
0,30037956
0,29488122
0,29239148
0,291857
0,28931564
0,27976992
0,27028092
0,26180438
0,25534498
0,24687
0,23536832
0,22393026
0,21448562
0,2090031
0,20245116
0,19287642
0,18626356
0,18061456
0,17896432
0,17335874
0,16277268
0,15219242
0,14364002
0,13407624
0,12050606
0,10288386
0,08630284
0,07268706
0,06201292
0,04935836
0,0367414
0,0270762
0,02238636
0,01769714
0,01302548
0,00538864
-0,00030262
-0,00301032
-0,00870836
-0,01646674
-0,02821846
-0,0379955
-0,04374956
-0,05252166
-0,06027236
-0,07001144
-0,07473586
-0,07547614
-0,07723206
-0,07500304
-0,0738129
-0,07064722
-0,06643344
-0,0642275
-0,06308016
-0,06693872
-0,06780744
-0,0687091
-0,07156016
-0,07742366
-0,08332248
-0,0841612
-0,08405094
-0,08399608
-0,08698044
-0,0879237
-0,08493378
-0,08493412
-0,08690734
-0,09286908
-0,0978656
-0,1038967
-0,11093526
-0,1219774
-0,13304662
-0,13917196
-0,14326474
-0,14533206
-0,14633862
-0,14033408
-0,12538816
-0,10142412
-0,07342466
-0,03640744
0,00857148
0,06056336
0,12155478
0,1925349
0,2734824
0,36045638
0,45541548
0,56332836
0,67922334
0,80416666
0,93213076
1,07109202
1,22105342
1,37502888
1,53405882
1,69406894
1,85811118
2,0241681
2,18521082
2,34329516
2,49338158
2,634437
2,7675316
2,87866824
2,97479406
3,04786868
3,09893212
3,120987
3,1140908
3,0841747
3,02727986
2,94442402
2,84260994
2,72276204
2,58593204
2,43209458
2,2672916
2,09649468
1,92069736
1,74290388
1,56314254
1,38837758
1,21857012
1,05981136
0,91110194
0,76938912
0,6437133
0,53303532
0,43739382
0,3497098
0,27301838
0,2093511
0,15669118
0,1109891
0,06733632
0,0336454
0,0060257
-0,0156068
-0,03323332
-0,0478777
-0,05552508
-0,0561501
-0,05272664
-0,04530558
-0,03689026
-0,02245682
-0,00408178
0,01431138
0,02766572
0,04001716
0,0513273
0,06462724
0,07392206
0,0792434
0,08255884
0,08688262
0,09518336
0,10347496
0,11172876
0,11694968
0,12818878
0,1434615
0,1577391
0,17001582
0,17929388
0,19055602
0,203766
0,21293096
0,21911034
0,22228808
0,22746016
0,23669352
0,24194076
0,24414628
0,2464097
0,25366542
0,26396116
0,27323356
0,27947754
0,28568432
0,2919459
0,30027186
0,3036225
0,30293734
0,30227546
0,30265982
0,30111492
0,29752828
0,29190326
0,29129754
0,29373826
0,29817242
0,30266644
0,30518722
0,31473888
0,32732376
0,33889398
0,35044246
0,35897904
0,36748292
0,3770007
0,38352846
0,38705294
0,38853756
0,39001164
0,3904808
0,38992382
0,39036874
0,39181296
0,39920294
0,40859848
0,41800636
0,42741544
0,43782516
0,45220706
0,46660212
0,4779731
0,48739334
0,49379348
0,49917656
0,50453808
0,50794698
0,50933504
0,51171462
0,51807512
0,52448246
0,53088994
0,53827326
0,54963094
0,56105208
0,57552344
0,58498126
0,59146208
0,59796998
0,60247264
0,60699086
0,60949374
0,61001104
0,6085673
0,60906416
0,611573
0,6141378
0,61867616
0,62325402
0,63185912
0,64039574
0,65095276
0,6575012
0,6650951
0,67274782
0,67942696
0,68412362
0,6847958
0,68546728
0,68815632
0,69089792
0,69566166
0,70045806
0,70728276
0,71708708
0,72786372
0,74066618
0,75144178
0,76318372
0,77589098
0,78655708
0,79623582
0,80388222
0,81055238
0,81626716
0,82092554
0,8276001
0,83232556
0,83902778
0,84866316
0,85930326
0,8719366
0,88057232
0,8922134
0,90583978
0,92145706
0,93606944
0,9466934
0,95636002
0,96799276
0,97865128
0,9852687
0,9918612
0,99843388
1,01000758
1,01955038
1,02706094
1,03657162
1,04711024
1,06365398
1,07819158
1,09174942
1,10435324
1,11890138
1,13549054
1,14811646
1,15676174
1,16442398
1,17510778
1,18477104
1,19238312
1,19696008
1,20351202
1,21408634
1,22763896
1,24013834
1,2526142
1,26805326
1,28850746
1,30895318
1,32643052
1,33985482
1,35327092
1,36865344
1,38202654
1,39132882
1,396702
1,40109446
1,411447
1,42081576
1,42818422
1,43557392
1,44498492
1,46040986
1,47488694
1,48735814
1,49579972
1,50523182
1,51565492
1,52207676
1,52448846
1,52195428
1,52242528
1,52390106
1,52336564
1,52279722
1,5222428
1,52475646
1,53027296
1,53278944
1,53428916
1,53775912
1,53926312
1,53874958
1,53422306
1,52572672
1,51721826
1,50674948
1,49430064
1,4788863
1,4604066
1,4438849
1,42833846
1,41481168
1,3992878
1,38274902
1,37117718
1,35858876
1,34399836
1,32641364
1,30479306
1,28615424
1,26452326
1,23786478
1,20922928
1,17953396
1,15076304
1,12396582
1,09412256
1,06326414
1,035356
1,00944414
0,98654658
0,96167976
0,9368497
0,91097458
0,88710886
0,86525582
0,84034424
0,81549598
0,78867194
0,76288128
0,73716236
0,711466
0,6897426
0,66404218
0,64136096
0,6217445
0,6051292
0,59046208
0,5748383
0,5602721
0,55069028
0,54007324
0,5284152
0,51268066
0,49797028
0,48621514
0,46940268
0,44961558
0,42879538
0,40797824
0,39119468
0,37642054
0,36063602
0,3448354
0,33206916
0,32528818
0,3214543
0,31558452
0,30873426
0,3008698
0,293994
0,28715842
0,27533902
0,26449564
0,25366182
0,24479356
0,23792494
0,23007406
0,2251726
0,22430266
0,22744176
0,2315458
0,23468468
0,23882232
0,24496456
0,25014804
0,25234078
0,25056244
0,2467841
0,24698634
0,24422638
0,23847758
0,2306866
0,22495714
0,22618454
0,22441952
0,2256137
0,22683546
0,23304916
0,24129446
0,24657716
0,25088606
0,25015262
0,25145408
0,2527207
0,2479692
0,24125226
0,23155422
0,22783786
0,22607882
0,22236448
0,21763902
0,21491326
0,21819326
0,2274737
0,23278696
0,23308416
0,2343799
0,23868566
0,24299312
0,24331296
0,2406261
0,23594336
0,23424216
0,2334989
0,2317355
0,22797268
0,22726226
0,23355456
0,23882444
0,24407064
0,24829272
0,2564985
0,26674614
0,27398614
0,2782223
0,27741186
0,27757258
0,27869694
0,27588844
0,27209396
0,26734934
0,26357722
0,26081556
0,25804548
0,2572737
0,25651156
0,25877506
0,26404428
0,26930236
0,27555286
0,28182398
0,2881411
0,2934326
0,29576578
0,29615856
0,29448194
0,29279946
0,29010442
0,28642048
0,28377438
0,28112208
0,28049482
0,2828198
0,28510156
0,2903899
0,2947192
0,30004306
0,30638008
0,30670578
0,30505142
0,30337854
0,30173408
0,30005792
0,29542022
0,29172942
0,28800772
0,28729858
0,28759328
0,28886486
0,29209542
0,29738396
0,30364732
0,30997108
0,31524248
0,31949658
0,32178276
0,32409378
0,32238716
0,31961436
0,31384704
0,3070582
0,30326998
0,2985267
0,29680474
0,29401638
0,29423782
0,29747606
0,30366688
0,30990466
0,31116488
0,31345994
0,31774898
0,32003286
0,3203104
0,31759628
0,3149211
0,31321866
0,31248676
0,3117395
0,30900896
0,31027426
0,31553804
0,32182294
0,32810906
0,33143448
0,3347949
0,34016952
0,34453546
0,34588468
0,34324086
0,33962256
0,336046
0,33250166
0,32792398
0,32238142
0,31884594
0,32031794
0,32180018
0,32033194
0,32288906
0,32640458
0,3349293
0,33748828
0,34005352
0,34064152
0,3421946
0,34472242
0,34123982
0,3367475
0,33227652
0,3328441
0,33042534
0,32704432
0,32160134
0,32308428
0,32658746
0,32806942
0,332517
0,33496802
0,344367
0,3547903
0,36119474
0,36357542
0,36399368
0,36546032
0,36489034
0,36136648
0,35586444
0,35032724
0,34679872
0,3462215
0,34467002
0,34311928
0,34354896
0,34798148
0,35646326
0,36095176
0,3634681
0,36601708
0,3695527
0,37304176
0,37151742
0,36893954
0,36535558
0,36271804
0,36301476
0,36233388
0,36265784
0,36597524
0,37027056
0,37757864
0,38482758
0,39109444
0,39735602
0,40266368
0,40803
0,40945974
0,41089066
0,4103384
0,40780312
0,40630266
0,40780814
0,4113036
0,4138097
0,41628078
0,42374616
0,43220332
0,44168188
0,44716314
0,4535932
0,45802288
0,46147708
0,46093158
0,45834638
0,45576014
0,44918814
0,44562756
0,44002124
0,43540532
0,43374234
0,43306094
0,43635852
0,44165154
0,44594828
0,45421814
0,4614275
0,47065812
0,47684584
0,47907154
0,48330342
0,4835414
0,48380306
0,48011458
0,47743088
0,47570146
0,47494378
0,47520042
0,4744914
0,47580212
0,48117488
0,48750776
0,49377426
0,49504618
0,4983406
0,50257338
0,50586358
0,50613854
0,50141602
0,49767772
0,49694732
0,49418482
0,48640746
0,4785869
0,47474246
0,47490158
0,47403638
0,4722265
0,47045792
0,47269906
0,48191774
0,48710744
0,48830184
0,48845944
0,49067504
0,49392082
0,4941149
0,48933326
0,48555388
0,48682442
0,4910672
0,49425294
0,49536664
0,50147726
0,51361042
0,52677214
0,5378995
0,54699394
0,55605624
0,56913528
0,58020488
0,58630816
0,58639212
0,5874984
0,59066536
0,5918472
0,59303102
0,59226976
0,59656514
0,60682446
0,61602816
0,6252418
0,63343602
0,646686
0,66293218
0,676143
0,68637044
0,69253962
0,70267366
0,7097734
0,71490604
0,71806722
0,72129656
0,72849822
0,73670144
0,74489592
0,75205904
0,76323038
0,7773722
0,79150972
0,8026389
0,80976776
0,81784994
0,82389132
0,82788374
0,82788442
0,8248709
0,82187532
0,81988856
0,81887168
0,81490102
0,81292616
0,81291262
0,81392388
0,81694318
0,81490682
0,81186948
0,81184842
0,80987436
0,80392462
0,79598808
0,78203264
0,76906824
0,75713088
0,74417736
0,73129996
0,71740122
0,70352208
0,69362426
0,68467854
0,6797174
0,67173156
0,66475758
0,65877472
0,65380462
0,64784822
0,6388612
0,62984396
0,61884558
0,60689618
0,59498066
0,57907592
0,56415774
0,55222616
0,5423059
0,53240136
0,52052704
0,51261976
0,5107636
0,50993316
0,51006294
0,5051926
0,50233932
0,50144944
0,4985612
0,49069284
0,48081294
0,46989808
0,461973
0,45603836
0,4471325
0,4402
0,43322978
0,43222238
0,43322742
0,43525714
0,43527406
0,4392692
0,44324516
0,44724804
0,44526014
0,44332268
0,44141082
0,43854948
0,4346758
0,42480732
0,4189819
0,41513384
0,41227374
0,40944554
0,40361876
0,40079936
0,40099684
0,40315188
0,40330128
0,40050444
0,39770258
0,396912
0,3980695
0,39716164
0,39527918
0,39546058
0,4086248
0,4238084
0,44199164
0,46722186
0,50340282
0,55353992
0,60668014
0,66987714
0,74103174
0,82315968
0,91529736
1,0144755
1,12264124
1,23279394
1,35196518
1,48212562
1,62027136
1,7614022
1,90553024
2,05562282
2,21478038
2,37189674
2,52400482
2,67212148
2,81626096
2,9574241
3,08662686
3,1987945
3,29399628
3,3771999
3,44740818
3,49061484
3,50586052
3,49614932
3,46841482
3,41468916
3,33598254
3,2333118
3,11858382
2,99090048
2,84724474
2,69156256
2,52687294
2,36122378
2,193568
2,02384418
1,85413456
1,68649032
1,52688306
1,37226714
1,22464958
1,08500862
0,95637102
0,83774758
0,73113614
0,63655494
0,55494838
0,4842747
0,42556856
0,37682148
0,3321464
0,29544906
0,2627704
0,23812276
0,21747278
0,19877604
0,1840872
0,17236106
0,1676247
0,1668405
0,17012714
0,1773938
0,18665
0,20085872
0,2210797
0,23835432
0,25562002
0,27082678
0,2850704
0,2993318
0,31157078
0,3178747
0,3251066
0,33136176
0,33965932
0,34699338
0,35728616
0,36760844
0,37786956
0,39311736
0,40631688
0,41954244
0,42876926
0,43695872
0,44520828
0,44848824
0,44978254
0,44707736
0,4454039
0,4447004
0,44497538
0,44218312
0,44134
0,44544472
0,45154194
0,45865008
0,4637938
0,46897376
0,47414044
0,47934616
0,48255908
0,47976808
0,47594994
0,47114316
0,46830462
0,4624324
0,45550294
0,45250412
0,4525306
0,45452492
0,4585633
0,46059598
0,46660442
0,47458356
0,48255954
0,48853852
0,49255972
0,49455146
0,50155288
0,50557224
0,50759866
0,50563944
0,50562732
0,51163904
0,51562418
0,51659532
0,51958482
0,5255428
0,53552588
0,54451262
0,54945358
0,55336906
0,56129984
0,57021924
0,57410796
0,57497284
0,5768914
0,57878022
0,58164522
0,57948262
0,5753637
0,57426456
0,57719168
0,5811363
0,58310594
0,58401636
0,59195068
0,60286206
0,61277674
0,62169502
0,62561796
0,63255128
0,63852572
0,64146238
0,64335614
0,64029346
0,6402806
0,64233336
0,64335488
0,6434033
0,6464806
0,65359094
0,66266752
0,67174706
0,67983746
0,68787764
0,69591484
0,70591964
0,71190952
0,71486934
0,71478984
0,71664308
0,7175525
0,7184461
0,72033384
0,72227036
0,72722428
0,73418226
0,74116224
0,75118188
0,76225564
0,77332254
0,78442174
0,79358292
0,80177884
0,80993676
0,81616174
0,82236502
0,82758134
0,83079314
0,83502276
0,84118758
0,84830916
0,8594345
0,87054786
0,88165264
0,89677942
0,91191388
0,92906274
0,94221864
0,95539228
0,96758778
0,9778157
0,98600892
0,99225158
0,99645452
1,00466196
1,01187214
1,0210201
1,0292247
1,04148696
1,0567937
1,07202876
1,09027876
1,10349282
1,11767802
1,13283472
1,14897972
1,1611159
1,17032878
1,1784937
1,18964084
1,19984158
1,21101566
1,21917762
1,22931364
1,24346254
1,25867476
1,27386868
1,2860313
1,30022838
1,3184115
1,33459662
1,34875228
1,35687356
1,36703346
1,38019624
1,38930364
1,3944119
1,39549588
1,39960374
1,4077016
1,41283526
1,41797106
1,42212772
1,43122826
1,44334554
1,45442846
1,46346274
1,47248662
1,48251322
1,49150586
1,49648974
1,49645496
1,49537576
1,49432794
1,49230014
1,487239
1,4781662
1,4730952
1,47201522
1,46889852
1,46576918
1,46059884
1,45842638
1,45627582
1,451117
1,441961
1,42978462
1,4165976
1,40337774
1,38713376
1,3668924
1,34470864
1,3254778
1,31222652
1,29497942
1,27671842
1,25943562
1,24617722
1,2359351
1,22070236
1,20242636
1,18015268
1,15989066
1,13660722
1,10932806
1,0790352
1,04969844
1,01936276
0,9900063
0,96065852
0,93128066
0,90486684
0,8784336
0,85703402
0,8355744
0,81215502
0,79071658
0,76831216
0,74890762
0,72454652
0,69919538
0,67287452
0,64452276
0,6181133
0,590763
0,56442062
0,54004832
0,5166641
0,49826058
0,48090462
0,46457706
0,45129812
0,43702034
0,42471036
0,41239992
0,3970939
0,3828249
0,36952768
0,3551708
0,3398075
0,32541064
0,31097672
0,29954886
0,28604876
0,27661172
0,2671223
0,25969288
0,25331904
0,24795878
0,24360772
0,23926138
0,23388846
0,23055062
0,2262142
0,220799
0,21033004
0,19985424
0,1904084
0,18198152
0,17254718
0,16215142
0,15472322
0,14924648
0,14778928
0,14829712
0,1477483
0,14821834
0,15071574
0,15325834
0,15185156
0,14839642
0,14396036
0,14157236
0,13724074
0,12988812
0,12252786
0,11913228
0,11974358
0,12336624
0,12497826
0,12657902
0,13317858
0,14271966
0,15026444
0,15476496
0,1572427
0,1586634
0,1611116
0,16062104
0,15611588
0,15062506
0,14815008
0,14762396
0,14907046
0,14652894
0,14599794
0,15147946
0,15896646
0,16638808
0,16877212
0,17218482
0,1756018
0,1810545
0,18152432
0,17698888
0,17242482
0,17087122
0,16729254
0,16077248
0,15526658
0,1526894
0,15610986
0,15853032
0,16090076
0,16334208
0,16675762
0,17513598
0,17951486
0,18285344
0,1801402
0,1783751
0,1766325
0,17183768
0,16699824
0,16015386
0,15735016
0,15650038
0,15564266
0,15386112
0,15212494
0,15638204
0,16363742
0,16794192
0,16923246
0,1705725
0,1729063
0,17627906
0,177616
0,17489886
0,17223538
0,17057376
0,17087134
0,16822116
0,1655615
0,16594466
0,16728064
0,17167828
0,17206862
0,1724732
0,17786408
0,18625796
0,19266372
0,19307466
0,19249562
0,19392322
0,19333714
0,18972712
0,18511542
0,17943382
0,17575698
0,17307036
0,17035966
0,16958814
0,16983062
0,17202452
0,17623186
0,18041812
0,18364328
0,18388706
0,18415514
0,18644266
0,18475294
0,18004374
0,17334794
0,16468856
0,16001038
0,15332414
0,14965604
0,14400998
0,14240414
0,14276508
0,14413732
0,14855064
0,14893662
0,15230574
0,15370968
0,15414054
0,15156862
0,1470066
0,14248536
0,13790196
0,1342805
0,129686
0,12713206
0,125557
0,12594166
0,12932898
0,13468136
0,13903476
0,14239918
0,1467815
0,15112624
0,15045496
0,14876118
0,1460399
0,14327996
0,13856468
0,13077578
0,1260126
0,12426138
0,12348738
0,1227202
0,12089952
0,12203236
0,12715326
0,1342601
0,1383667
0,13744076
0,13651602
0,13655436
0,13556872
0,13054472
0,12352806
0,11645742
0,11445092
0,1104448
0,10645688
0,10243824
0,10341218
0,1073454
0,11235674
0,11539836
0,11550142
0,11959896
0,12569564
0,12982884
0,13195518
0,12713086
0,12527166
0,12547258
0,12572988
0,12101736
0,11631204
0,11258322
0,1149097
0,11626458
0,1146031
0,11495034
0,1192788
0,1286265
0,13292944
0,13525702
0,13662986
0,13998062
0,14331054
0,14061804
0,1359287
0,13127352
0,12860718
0,12690806
0,12219174
0,11641114
0,11463666
0,11686018
0,12201202
0,12813678
0,13220688
0,13831188
0,14442716
0,14657256
0,14670222
0,14281414
0,13995486
0,13511926
0,12925254
0,12237706
0,11552538
0,11265528
0,11375562
0,11488786
0,1160317
0,11822348
0,12440576
0,12958316
0,13278526
0,13302908
0,13125944
0,12946938
0,1286649
0,12390358
0,11717158
0,11049772
0,10987126
0,10918484
0,10852528
0,11082456
0,11308066
0,12036486
0,1286385
0,13490206
0,13815154
0,1413841
0,14263682
0,14384972
0,14005672
0,13533864
0,1306032
0,12586758
0,12413772
0,1213792
0,11865824
0,11893762
0,12025424
0,12455038
0,12981994
0,13308712
0,13430874
0,13655176
0,13682388
0,13511064
0,1314225
0,12774284
0,12506248
0,1213576
0,11772244
0,1141333
0,11253208
0,11394714
0,1153854
0,11780782
0,12121694
0,1246207
0,1280188
0,12938054
0,12973424
0,12909952
0,12748192
0,12581812
0,12116664
0,11554794
0,11094104
0,10537104
0,10181246
0,09919028
0,09853966
0,09687256
0,09719342
0,10353998
0,11088848
0,12221502
0,13051334
0,13887484
0,14928606
0,16069218
0,16914224
0,17258274
0,17500594
0,17938356
0,18277492
0,18617678
0,19053492
0,19582236
0,20707388
0,21832516
0,22761606
0,23792288
0,250213
0,26346542
0,2747353
0,28097016
0,28420224
0,2873582
0,29351522
0,29666922
0,29585586
0,2980309
0,30216324
0,31031336
0,3194646
0,32664904
0,3388549
0,35306682
0,36827524
0,38153216
0,38976586
0,39701842
0,40523488
0,4114435
0,41568458
0,41293376
0,40916406
0,41138644
0,41358808
0,41476242
0,41090286
0,41310628
0,4203294
0,42756906
0,43477828
0,43696082
0,44018732
0,44546406
0,44574868
0,44405814
0,4333383
0,42563666
0,41797988
0,40838776
0,39972798
0,3880006
0,38224156
0,37853458
0,37482942
0,3691313
0,36446194
0,36277092
0,36105156
0,35633576
0,34660556
0,33695026
0,32428674
0,3125956
0,29593494
0,2773249
0,25874396
0,2421195
0,22745582
0,21172258
0,19703652
0,18432914
0,17568346
0,16798564
0,15724708
0,14652196
0,13783158
0,13015718
0,1204874
0,10880358
0,09304814
0,08231402
0,07261454
0,06191424
0,05117836
0,0384413
0,02969432
0,02488688
0,02105576
0,01723
0,01340296
0,0145775
0,01774284
0,0209296
0,01713828
0,01332734
0,01150522
0,0086903
0,00285138
-0,0069995
-0,0158909
-0,02078674
-0,0236381
-0,02742778
-0,03027222
-0,03311708
-0,03093164
-0,02678274
-0,02360214
-0,02441352
-0,02622816
-0,02802508
-0,02883496
-0,03463412
-0,04539724
-0,0562024
-0,06703142
-0,07482944
-0,08156644
-0,09027356
-0,09399836
-0,09376442
-0,08750546
-0,07927724
-0,06810384
-0,05291946
-0,03276828
-0,00960678
0,01559944
0,0497899
0,09000326
0,13625926
0,19153728
0,2568879
0,33323898
0,42158566
0,52099128
0,6314233
0,75586844
0,88634282
1,02586412
1,17440082
1,3289385
1,48844316
1,64592772
1,80434458
1,96269918
2,11807682
2,27138326
2,41667398
2,55592246
2,68910836
2,81229654
2,91644484
3,00161636
3,07080056
3,12196654
3,14017508
3,12640154
3,0836704
3,01490016
2,91816568
2,79644284
2,65469438
2,4889296
2,31215268
2,12839856
1,9376761
1,74500308
1,55132584
1,3626753
1,18301662
1,01139364
0,8497721
0,69814892
0,55848716
0,43080586
0,31506156
0,20932258
0,1116118
0,02690696
-0,044808
-0,10850296
-0,16422144
-0,21489666
-0,25360192
-0,27931782
-0,29901266
-0,316717
-0,32639032
-0,3260235
-0,31865244
-0,31030722
-0,3059158
-0,2975782
-0,28723334
-0,27583606
-0,26743708
-0,26405528
-0,25767124
-0,2502659
-0,24281698
-0,2373526
-0,23185974
-0,2223111
-0,21082224
-0,1973341
-0,18685468
-0,17535024
-0,16381428
-0,15227152
-0,14673804
-0,14425956
-0,14579532
-0,14732416
-0,14688162
-0,15140952
-0,15499022
-0,1615277
-0,16300384
-0,15845228
-0,15594022
-0,15145656
-0,14902904
-0,14054536
-0,13202756
-0,1274865
-0,12595604
-0,12744782
-0,12692788
-0,12440886
-0,12787204
-0,13336916
-0,1368522
-0,13736134
-0,1359434
-0,1335317
-0,13110656
-0,12468586
-0,1142937
-0,10291772
-0,09455354
-0,08818092
-0,08176558
-0,07739162
-0,07399498
-0,07256578
-0,07408916
-0,0735717
-0,0750949
-0,07469012
-0,07324374
-0,0728646
-0,0684202
-0,0619731
-0,05250632
-0,04306282
-0,0336299
-0,02615718
-0,0187291
-0,01227164
-0,00676986
-0,00422882
-0,00470156
-0,00318094
-0,00368364
-0,00313644
-0,0035468
-0,0029996
0,0005653
0,00416334
0,01172262
0,01632488
0,02299448
0,02960848
0,03723658
0,04585144
0,04847986
0,05014092
0,05381854
0,05348708
0,05412894
0,04777162
0,04239238
0,0390369
0,0356597
0,03628876
0,03296928
0,0336873
0,04044184
0,04921422
0,056981
0,0647986
0,07262978
0,082517
0,09140932
0,09626088
0,0981359
0,09700788
0,09986658
0,10174782
0,10158208
0,10242298
0,10720136
0,11699784
0,12579418
0,13459348
0,1453512
0,16114838
0,17494922
0,18677186
0,19361304
0,19940066
0,2091923
0,21800106
0,22280736
0,22461384
0,22839568
0,23614796
0,24692512
0,25774794
0,26559866
0,27639404
0,29215586
0,30892022
0,32269148
0,33149384
0,34226464
0,35605186
0,36781722
0,37455252
0,37726564
0,38198594
0,3906512
0,40033462
0,41001694
0,41670698
0,42640424
0,44414412
0,46187304
0,47755942
0,49024818
0,5029438
0,52162218
0,53633304
0,54504208
0,55175864
0,55848222
0,57020894
0,5808676
0,58753442
0,5951943
0,60682236
0,62539134
0,64198346
0,65759216
0,67421688
0,6938569
0,71453088
0,73023084
0,74293874
0,75463574
0,76931682
0,78098558
0,7896379
0,79428222
0,80190244
0,81353518
0,82222978
0,83195846
0,83766542
0,85042574
0,86515614
0,87788924
0,89163994
0,90034684
0,91002532
0,9227635
0,93146484
0,9361479
0,93678152
0,94045546
0,94514438
0,94481856
0,941509
0,94119812
0,9439223
0,9485955
0,95231596
0,95598604
0,96062298
0,96825242
0,97692362
0,98062504
0,98336316
0,98317386
0,98202548
0,9788119
0,96959986
0,96034704
0,94710954
0,9348896
0,92368708
0,911446
0,89815194
0,88581598
0,87352628
0,864267
0,85205594
0,83586568
0,81663656
0,79741154
0,77613624
0,75187902
0,72464392
0,6954423
0,66626208
0,63807592
0,61090426
0,58271824
0,55650194
0,53225974
0,50906676
0,4868755
0,46271198
0,43954688
0,4143584
0,39018816
0,3659751
0,33671186
0,30845334
0,27818652
0,2489444
0,22067604
0,18937326
0,1600947
0,1358457
0,11360744
0,09237872
0,07212236
0,0528465
0,03655562
0,02020186
0,00184662
-0,02052966
-0,04389046
-0,06320698
-0,08450694
-0,10576834
-0,13099386
-0,15121754
-0,16840234
-0,18355802
-0,19869776
-0,21489372
-0,22405016
-0,23125756
-0,23948276
-0,25270338
-0,26392128
-0,27216078
-0,27935688
-0,29054176
-0,30473544
-0,31893782
-0,3311146
-0,33928026
-0,34838754
-0,35847236
-0,36756676
-0,37266688
-0,37373806
-0,37478698
-0,37778852
-0,37881394
-0,37577972
-0,37372498
-0,3736305
-0,37753132
-0,38042216
-0,37933448
-0,38228088
-0,38820766
-0,39917778
-0,4071178
-0,40901688
-0,409917
-0,41274236
-0,4145598
-0,41233816
-0,40707836
-0,40183636
-0,39653572
-0,39521276
-0,38988228
-0,38659096
-0,38635206
-0,38907204
-0,39176762
-0,39441848
-0,39612182
-0,39982542
-0,40249742
-0,40513736
-0,40379312
-0,39943788
-0,3970808
-0,39169988
-0,38828172
-0,38389352
-0,37951846
-0,37811212
-0,3777305
-0,37937588
-0,3820133
-0,38368042
-0,3863753
-0,38911812
-0,38988126
-0,389662
-0,38541316
-0,38116374
-0,37687294
-0,36855002
-0,36121308
-0,3528526
-0,34946476
-0,34509078
-0,34165884
-0,3412363
-0,33975558
-0,34227026
-0,3438248
-0,34537844
-0,34491976
-0,3434855
-0,34302574
-0,34061586
-0,33523928
-0,32584704
-0,3174474
-0,30906598
-0,30368508
-0,29835684
-0,29305236
-0,29172202
-0,29039874
-0,29203812
-0,29567252
-0,29727894
-0,29793272
-0,29952862
-0,3011087
-0,30065846
-0,29621196
-0,28978378
-0,2843431
-0,2819046
-0,2774476
-0,27106352
-0,26466058
-0,26123264
-0,26385068
-0,26545428
-0,26804802
-0,2676514
-0,26827416
-0,2718805
-0,27241944
-0,27098458
-0,26659866
-0,26423618
-0,26082352
-0,25540544
-0,24597386
-0,23754518
-0,23310948
-0,22962716
-0,22617162
-0,22071872
-0,21922002
-0,21972888
-0,2253009
-0,22983766
-0,23041724
-0,23198432
-0,23355128
-0,23614898
-0,23374154
-0,22831024
-0,22388648
-0,21841244
-0,21388784
-0,20638374
-0,19984118
-0,19729362
-0,19971088
-0,20007756
-0,1993896
-0,2016687
-0,2050081
-0,21134802
-0,21273716
-0,2121251
-0,20953492
-0,20588698
-0,20328004
-0,19668842
-0,18905758
-0,18441586
-0,18279472
-0,1831221
-0,18245876
-0,18282168
-0,1871421
-0,1954572
-0,20275892
-0,20603638
-0,20728138
-0,20954762
-0,21184814
-0,21217494
-0,20747588
-0,1987519
-0,19297602
-0,18921768
-0,18843182
-0,1846099
-0,18176466
-0,1828823
-0,18896438
-0,19406896
-0,19814068
-0,19926308
-0,2024004
-0,2065219
-0,20661644
-0,20275578
-0,1978645
-0,19298378
-0,18909652
-0,18325068
-0,1804013
-0,17750702
-0,17760062
-0,17770288
-0,17878224
-0,18092156
-0,1830417
-0,18616832
-0,19029704
-0,19249444
-0,19172998
-0,1899706
-0,18625214
-0,18351972
-0,18075152
-0,17499538
-0,17027684
-0,16457598
-0,16092086
-0,1603217
-0,16071482
-0,16210998
-0,16453472
-0,1679108
-0,1723529
-0,17580464
-0,18124704
-0,18363852
-0,18600322
-0,18637024
-0,18378194
-0,18122064
-0,17659852
-0,17397894
-0,17034398
-0,1646584
-0,16196992
-0,1592143
-0,16041548
-0,1626311
-0,16385704
-0,16609418
-0,16729096
-0,170467
-0,1697116
-0,1699709
-0,1672885
-0,16362468
-0,15892466
-0,15228632
-0,14467268
-0,13908364
-0,13554134
-0,13303274
-0,13252086
-0,1309956
-0,1324157
-0,13583256
-0,14024482
-0,1436832
-0,14213828
-0,13959854
-0,13899832
-0,1353986
-0,12977458
-0,12113084
-0,11249172
-0,11183224
-0,108176
-0,10756266
-0,1079347
-0,10828184
-0,1136325
-0,12104084
-0,12448464
-0,12692836
-0,12937984
-0,13186616
-0,13330368
-0,12973892
-0,1231535
-0,117579
-0,11495658
-0,11135602
-0,10878256
-0,10520288
-0,10660224
-0,11098566
-0,11642778
-0,11785174
-0,1213386
-0,1238241
-0,13025836
-0,13364364
-0,13304162
-0,1284652
-0,12387212
-0,12027674
-0,11462736
-0,10795306
-0,10226104
-0,09959774
-0,09994622
-0,10231552
-0,09971308
-0,10110608
-0,10754464
-0,11299898
-0,11847778
-0,1189726
-0,11746738
-0,11895196
-0,11843156
-0,11687852
-0,10836372
-0,10385086
-0,10033496
-0,09785344
-0,0953399
-0,08881378
-0,08724786
-0,08970722
-0,09115054
-0,0896134
-0,08812152
-0,08965444
-0,09416274
-0,09664986
-0,09317736
-0,0897042
-0,08521856
-0,08372592
-0,08025916
-0,07273692
-0,0642019
-0,05866084
-0,0571629
-0,054674
-0,05113592
-0,04960704
-0,05009572
-0,0545849
-0,0560964
-0,05156936
-0,0500674
-0,04850568
-0,04894222
-0,04332344
-0,03371598
-0,0250602
-0,01635508
-0,01163306
-0,00295468
0,00569234
0,01136398
0,01705776
0,0177656
0,02151936
0,02731408
0,03106734
0,03587148
0,04265826
0,0534422
0,0692125
0,08401082
0,0987828
0,1145375
0,13030326
0,1470374
0,15973194
0,1693814
0,1790133
0,18563884
0,1932953
0,1979177
0,20553604
0,21315104
0,22375832
0,23531116
0,24787844
0,26143928
0,2779819
0,29646626
0,31198774
0,3265225
0,33704424
0,35056318
0,36112386
0,36873832
0,37333164
0,37694166
0,37958932
0,38322198
0,38580272
0,38837234
0,39091552
0,39448378
0,40103622
0,40356222
0,40407292
0,40457406
0,40508712
0,40562808
0,40117206
0,39273176
0,38330008
0,37386468
0,36647446
0,35705748
0,34663502
0,33723588
0,32879332
0,3233551
0,31790346
0,3124508
0,30601238
0,29858132
0,29317458
0,28478894
0,2733669
0,2629602
0,25157532
0,24116952
0,22674776
0,2103358
0,19498064
0,18165272
0,17033156
0,15704764
0,14475758
0,13544286
0,12811006
0,12278348
0,11947498
0,11315344
0,10881288
0,10346658
0,09708502
0,088744
0,07937114
0,07097994
0,06253684
0,05406232
0,0476435
0,04119294
0,03475136
0,03228886
0,03277922
0,03526776
0,03771582
0,04020596
0,0416668
0,04514456
0,04761706
0,04816354
0,04473942
0,04324798
0,04072528
0,03724174
0,03277846
0,02934986
0,02994918
0,03254904
0,03417588
0,03383402
0,03646528
0,04013886
0,04383066
0,04252044
0,03824966
0,03295792
0,02769946
0,02047364
0,012214
0,00098016
-0,0083081
-0,0106336
-0,0159379
-0,01922768
-0,01751694
-0,0137984
-0,00413592
0,00853874
0,0202339
0,03192448
0,0486028
0,07329612
0,10398044
0,1356209
0,17225244
0,22083498
0,2843586
0,35888636
0,4354293
0,52694432
0,63446958
0,75205638
0,8766416
1,00924322
1,15479796
1,30734544
1,46383408
1,6213318
1,7808312
1,9413213
2,10376684
2,2641794
2,4176349
2,5650865
2,70757488
2,84102552
2,95743538
3,05980656
3,14514086
3,20755234
3,24393196
3,24933428
3,23071018
3,17707292
3,09639238
2,99173008
2,86411884
2,71447544
2,54286096
2,36425034
2,17866104
1,98807068
1,79545186
1,60382142
1,4212391
1,24970226
1,0871301
0,93257368
0,7900422
0,66152772
0,54606066
0,43857254
0,33913294
0,25268696
0,17720874
0,11172072
0,05219728
0,00169878
-0,03777268
-0,06722562
-0,0876382
-0,10401782
-0,11138394
-0,112735
-0,10806368
-0,10237752
-0,09674116
-0,09111692
-0,084447
-0,07683934
-0,07425614
-0,07062808
-0,06898434
-0,0653391
-0,06073686
-0,05515006
-0,04652544
-0,03890162
-0,0302639
-0,01663864
-0,00503594
0,00762582
0,0152835
0,0218882
0,02951296
0,03413224
0,03779362
0,03747756
0,0371534
0,03776032
0,03837224
0,03999222
0,03954904
0,04312576
0,04868958
0,05621736
0,0657051
0,07216142
0,07859318
0,087008
0,09240892
0,09784234
0,09827428
0,09666924
0,09709996
0,09754214
0,09700142
0,09548508
0,0950157
0,09962238
0,10519422
0,11175308
0,11626456
0,1228294
0,1304276
0,13800312
0,14453266
0,14805022
0,15051988
0,15501446
0,15549674
0,1529404
0,15134826
0,1528206
0,15729766
0,16180362
0,1642999
0,17078034
0,18129908
0,1928286
0,20433714
0,20985004
0,21636648
0,22289572
0,2303882
0,23390176
0,23444336
0,23395156
0,23444012
0,23291584
0,22946012
0,22499376
0,22452868
0,2310375
0,23550192
0,2409593
0,24644158
0,25597012
0,27047074
0,28393876
0,29344042
0,29893512
0,3054361
0,31294636
0,3174493
0,32097498
0,31852716
0,32012138
0,32770354
0,33127962
0,33585774
0,34149778
0,3531477
0,36684272
0,37850258
0,38715022
0,39681634
0,4075321
0,41828458
0,42503362
0,4277599
0,43046606
0,43313504
0,43581366
0,43849652
0,44215608
0,44878214
0,45740898
0,46799286
0,479566
0,48916586
0,50276154
0,51536856
0,52699008
0,53757652
0,54319902
0,55177322
0,55629344
0,56087362
0,56449474
0,57015278
0,57880874
0,58844296
0,59811992
0,60980526
0,62151534
0,63523684
0,65001908
0,66385258
0,67566624
0,6854612
0,69724444
0,70709244
0,71287912
0,7186148
0,72232158
0,73001698
0,73970862
0,74735036
0,75898096
0,76962376
0,78229094
0,79694306
0,81259356
0,83021852
0,84483224
0,86043722
0,87499464
0,88757442
0,8991768
0,90775498
0,91936842
0,93094174
0,94353378
0,95517848
0,9658352
0,98052348
0,99621628
1,01290914
1,02963048
1,04729158
1,06392422
1,08357532
1,10128044
1,11599076
1,12773774
1,14149546
1,15225234
1,16201266
1,16778724
1,17257576
1,1793486
1,1871465
1,19593792
1,20274076
1,2125621
1,22642118
1,2423453
1,25931394
1,27234858
1,2844141
1,29548116
1,30550064
1,3155299
1,31955696
1,32355864
1,32657298
1,3305796
1,33562632
1,33768226
1,3417274
1,34977782
1,35878376
1,36681772
1,370856
1,37487614
1,37989862
1,3839655
1,38601654
1,38103982
1,37506152
1,37011948
1,36320996
1,35428368
1,34137368
1,33143054
1,32745154
1,3194067
1,30938078
1,2993338
1,29124938
1,28615738
1,27407834
1,25899222
1,2419486
1,22288932
1,20485052
1,18187124
1,15590068
1,12793702
1,10402006
1,08111712
1,05620696
1,02930974
1,00341906
0,9835438
0,96365962
0,94175582
0,91580144
0,89089182
0,86795132
0,84306154
0,81512898
0,78223208
0,7493251
0,7214345
0,69150656
0,66259334
0,63174322
0,60587764
0,58405162
0,56322678
0,54142476
0,51862198
0,49983238
0,48507988
0,46725292
0,4464785
0,422705
0,4009024
0,38107948
0,35918524
0,33933424
0,31653732
0,29871536
0,28392762
0,2680926
0,25631806
0,24455684
0,23586986
0,2301883
0,22344388
0,21574348
0,20900864
0,20519988
0,20037118
0,19355298
0,18377136
0,17402414
0,16425034
0,1564857
0,1467814
0,13706768
0,13036188
0,12468664
0,12199184
0,12126864
0,12156444
0,12380226
0,12600906
0,12723418
0,12739858
0,1235796
0,12376498
0,12295206
0,11915902
0,11438256
0,10956382
0,1087626
0,11092952
0,1121089
0,11526736
0,11839252
0,12446318
0,13156636
0,13667206
0,1427685
0,14483638
0,14692486
0,14701134
0,14605112
0,14510286
0,14012298
0,13712698
0,13818234
0,13923482
0,14133784
0,1424625
0,14761596
0,15569362
0,16483306
0,17396884
0,179121
0,18426482
0,1903911
0,19551732
0,19864392
0,196771
0,1949168
0,19504174
0,19717822
0,19733408
0,19645454
0,1985097
0,20551632
0,2125858
0,2186558
0,2227288
0,22778082
0,23281178
0,23983608
0,24084952
0,23988096
0,23691734
0,23592286
0,2349908
0,23110064
0,22820526
0,2263657
0,2295692
0,23476504
0,23693122
0,242114
0,25032684
0,25856324
0,26678152
0,26898804
0,27216592
0,27631956
0,2804552
0,2826242
0,27978386
0,27794548
0,27906276
0,28012928
0,28025444
0,28039444
0,28152212
0,28864968
0,29374082
0,2987597
0,30073228
0,30672342
0,31570864
0,32071062
0,3236976
0,32166814
0,3216573
0,32266846
0,31967588
0,31673218
0,3097789
0,30682398
0,31088468
0,3119433
0,31597938
0,31902354
0,32701574
0,33805002
0,34608846
0,3480733
0,3500632
0,35206144
0,3540663
0,35105762
0,34398622
0,33890392
0,33681644
0,33571276
0,3345745
0,3314679
0,33236954
0,33930438
0,34725096
0,35426888
0,35721278
0,36311242
0,36801464
0,37285098
0,37068006
0,36657624
0,36340764
0,36029172
0,35711394
0,3549326
0,35274524
0,35259494
0,35443514
0,3582674
0,36406292
0,36987602
0,37466682
0,37843802
0,38118208
0,38394202
0,38376832
0,38257856
0,37939344
0,37524762
0,37112648
0,36807512
0,3669907
0,3699084
0,37181282
0,3757561
0,3817123
0,38971076
0,39866962
0,40556388
0,41143516
0,41431794
0,41722758
0,41618628
0,41414746
0,41006854
0,40503434
0,40204874
0,40109726
0,39909648
0,39809776
0,40005822
0,40405334
0,41108716
0,4191128
0,42310614
0,42716448
0,43223918
0,43732632
0,4414248
0,44045568
0,43748562
0,4364555
0,4374058
0,43632486
0,43127836
0,42723528
0,42916496
0,43211516
0,4350271
0,43495884
0,43787118
0,4457745
0,45464346
0,46054032
0,46043512
0,46231182
0,46416634
0,46805158
0,46591082
0,45979172
0,4556846
0,45553612
0,4574462
0,45732666
0,45416012
0,45601058
0,46383252
0,47165022
0,47644376
0,4772375
0,48003434
0,48582376
0,48960754
0,48841734
0,48222658
0,47903568
0,47888366
0,47674308
0,47258328
0,4674201
0,46723492
0,47306104
0,47782294
0,48055328
0,4852974
0,49197968
0,49968192
0,50244674
0,50019708
0,49996564
0,49973274
0,49851578
0,49323388
0,4909949
0,48878148
0,48953298
0,49127612
0,49400714
0,4977654
0,50247788
0,50917986
0,5148626
0,51755078
0,51728228
0,51901792
0,52074064
0,51848086
0,51421574
0,50790996
0,50561116
0,50536876
0,50412
0,50283994
0,50356956
0,50726554
0,51491382
0,52154074
0,52710788
0,53168662
0,53823424
0,54479168
0,5473425
0,54695958
0,54551486
0,54509518
0,54570836
0,5442823
0,5428939
0,54048754
0,54205636
0,54566704
0,55026934
0,5558189
0,5583279
0,56190616
0,5674681
0,57002946
0,57056102
0,5690736
0,566557
0,56602892
0,56353418
0,55903282
0,55458392
0,55109596
0,5515861
0,55401934
0,55341844
0,55386312
0,55823732
0,56460564
0,572974
0,57937892
0,58378258
0,58818568
0,59261222
0,5960363
0,5944614
0,59293136
0,59040056
0,5888466
0,58929504
0,58474826
0,58519242
0,58863414
0,59306818
0,59849132
0,602891
0,60929844
0,61470688
0,61911928
0,62156198
0,61894958
0,6153353
0,61179256
0,6083182
0,60085098
0,59440596
0,58993134
0,59140998
0,59387662
0,59536292
0,59784762
0,60435858
0,6138587
0,62134066
0,6268464
0,62834468
0,63181202
0,63523548
0,63467388
0,63205228
0,62638042
0,62475748
0,62612518
0,62550236
0,62382548
0,62515378
0,63042292
0,6376763
0,6409271
0,64316402
0,64640842
0,64965092
0,65291138
0,65116608
0,64541202
0,64066664
0,63491626
0,63219826
0,62947956
0,62478596
0,6240822
0,62741942
0,63082162
0,63515678
0,63846846
0,64275424
0,64906558
0,65339904
0,6556782
0,654923
0,65717602
0,65742962
0,65672716
0,65396266
0,64925604
0,64854792
0,64981632
0,65209868
0,6524323
0,65471284
0,65894356
0,66616602
0,67136706
0,67756812
0,68176122
0,68597782
0,69024784
0,6895114
0,6897841
0,6870863
0,68536574
0,68266502
0,67996948
0,67933386
0,677727
0,6791581
0,68258188
0,6879788
0,69740302
0,706816
0,71927546
0,73279762
0,74534844
0,75489816
0,7634125
0,7689665
0,77453808
0,77915614
0,78081142
0,78550902
0,79018616
0,79887288
0,80748638
0,81914328
0,83283178
0,84652654
0,8631937
0,87786034
0,8904756
0,90110548
0,91272612
0,9213065
0,92991532
0,93153964
0,9351773
0,94275556
0,95332012
0,96595504
0,97761788
0,99233424
1,01106274
1,03077882
1,05254878
1,06930366
1,08205114
1,09480682
1,10558264
1,11437696
1,11716542
1,11896222
1,1227245
1,12448542
1,1262563
1,12499044
1,12673808
1,13149414
1,13620414
1,13989402
1,13861338
1,13838056
1,13810736
1,13784294
1,1325687
1,12129648
1,10797928
1,0965929
1,08620316
1,07081224
1,05542766
1,04106494
1,03168774
1,02227808
1,01284678
1,00543676
0,999077
0,99671518
0,9913586
0,98205848
0,97179702
0,96053504
0,95127806
0,9380109
0,92272714
0,90449826
0,89129622
0,8810466
0,86874658
0,85639622
0,84707676
0,84270508
0,83833842
0,83491622
0,82849354
0,82605502
0,82662304
0,82318604
0,81679912
0,8084112
0,80306312
0,79670006
0,7863762
0,77402452
0,76365148
0,75628958
0,7519284
0,748503
0,7450897
0,74371268
0,74634214
0,75200812
0,75667724
0,75831984
0,75699918
0,75769202
0,75743718
0,75418618
0,7489367
0,73975082
0,73356362
0,72940516
0,72319588
0,7189663
0,71568704
0,71539406
0,7181224
0,7198721
0,7206168
0,72033432
0,72006828
0,72186122
0,71766452
0,71042268
0,70420104
0,6969504
0,6927172
0,69147164
0,69220144
0,69591532
0,70456926
0,72219812
0,74678906
0,77835016
0,81591482
0,863445
0,91895578
0,98047326
1,0490178
1,1285546
1,21909932
1,31364316
1,41819408
1,53077188
1,65535972
1,7879004
1,93248156
2,08606124
2,24465272
2,40723046
2,5728226
2,7404727
2,90712334
3,0657481
3,21633802
3,35993
3,48950398
3,60704762
3,70352692
3,78003352
3,8385747
3,87609366
3,89062982
3,8701818
3,82370612
3,75826766
3,67085632
3,55851038
3,42013272
3,26775146
3,10437676
2,92996464
2,7455529
2,55406588
2,36359938
2,1811502
2,00165802
1,8271829
1,66371568
1,51426138
1,38381564
1,26131212
1,14984186
1,05337432
0,97092802
0,90450204
0,84311416
0,78766604
0,74219582
0,70575756
0,67736638
0,65096056
0,62653688
0,60516312
0,59384516
0,58550696
0,58015276
0,5778544
0,58058036
0,59026556
0,6009422
0,61262434
0,62129042
0,63395388
0,64762754
0,6572882
0,66391216
0,66758896
0,67026334
0,67588314
0,67948554
0,6830672
0,68559678
0,69211484
0,7016663
0,7122211
0,7207769
0,72929838
0,74080526
0,75233736
0,75882786
0,76431628
0,76577416
0,76919968
0,76961756
0,7670748
0,76353858
0,7610333
0,76447836
0,76796792
0,77241078
0,77683408
0,7843034
0,79480462
0,8063472
0,8148685
0,81939682
0,82488782
0,82935844
0,83076426
0,83113772
0,82957584
0,82700184
0,8264438
0,82591894
0,82837766
0,83081778
0,83623586
0,8416809
0,852171
0,86169478
0,87017492
0,87664072
0,88313972
0,88857536
0,89204944
0,89053164
0,8880072
0,88753154
0,88708714
0,88965758
0,8882413
0,89085702
0,8954636
0,90100802
0,90950128
0,917007
0,92350356
0,9310195
0,93648314
0,94193304
0,94541642
0,94690696
0,9484073
0,94888034
0,94835932
0,94686234
0,94736802
0,95088444
0,95440988
0,96293876
0,96843276
0,97689956
0,98739196
0,99891752
1,01247306
1,02110168
1,02972028
1,04036964
1,0490526
1,05571782
1,05837824
1,06001936
1,0636751
1,06432422
1,06499782
1,06565244
1,07030368
1,07796274
1,08760412
1,09824926
1,106914
1,11956452
1,1322646
1,14396294
1,15163782
1,15728116
1,15989078
1,1635134
1,16307446
1,16156116
1,16107446
1,165595
1,17113216
1,17860308
1,18406884
1,19453906
1,20693844
1,22229696
1,23468408
1,24204302
1,25039236
1,25870266
1,26902486
1,27235242
1,2716825
1,2720726
1,27846004
1,2848308
1,29124096
1,2976622
1,30905786
1,32745554
1,34481922
1,35915696
1,37253122
1,38888486
1,40720094
1,420482
1,43075644
1,43499444
1,4422475
1,45147606
1,45969392
1,46793106
1,47622536
1,48852038
1,50383716
1,52009982
1,53434024
1,55157096
1,56877586
1,58798936
1,6032312
1,61248158
1,62373524
1,63497316
1,64424022
1,65049876
1,65578334
1,66311368
1,6734951
1,68593642
1,69936978
1,71180808
1,72728568
1,74476976
1,76224832
1,77970306
1,79317538
1,8096927
1,82621934
1,83777604
1,84732996
1,85386512
1,86341636
1,87398426
1,88255234
1,89010942
1,8986051
1,91007122
1,92252922
1,93498186
1,94735852
1,9587146
1,97110728
1,98152986
1,99196338
1,99938092
2,00579456
2,00825778
2,01175134
2,00922566
2,0086714
2,00311238
2,00056884
2,00098344
1,99937372
2,0017616
2,00015536
2,00154236
2,00589166
2,010247
2,01160304
2,00796624
2,00334054
1,99670456
1,98804336
1,97436282
1,95764838
1,94186576
1,9260997
1,91039386
1,89370182
1,8780738
1,8624014
1,85174618
1,84104192
1,82738074
1,81173644
1,79307068
1,77440402
1,7546912
1,7299795
1,70427138
1,67656542
1,64979978
1,62303
1,59327556
1,56657806
1,54191998
1,52021738
1,500531
1,47784414
1,45514806
1,43443124
1,41366832
1,38989048
1,36111812
1,33031032
1,30151054
1,2727148
1,24195072
1,21018652
1,18336746
1,15954466
1,13669364
1,11691182
1,09612652
1,08230692
1,07246428
1,05861266
1,04571176
1,02578652
1,0089274
0,99201212
0,97411964
0,95225498
0,92839022
0,9085325
0,89066596
0,87474022
0,85783884
0,843947
0,83504106
0,83108252
0,82413556
0,81713048
0,81008158
0,80609032
0,80510342
0,79610596
0,7860727
0,77303774
0,76305706
0,75506156
0,7450079
0,7319576
0,72393064
0,71785962
0,71277726
0,70771094
0,70267652
0,70263788
0,7055985
0,70851252
0,70843554
0,7064104
0,7084387
0,70947778
0,70754944
0,70363368
0,69974178
0,69188314
0,68800762
0,68413912
0,68324046
0,68230548
0,6843216
0,68836392
0,69342194
0,69948974
0,7055082
0,7114848
0,71741046
0,7192989
0,7191458
0,71694912
0,7147518
0,71151836
0,70825624
0,7069847
0,70374534
0,7025625
0,70536772
0,70912408
0,71686952
0,72456416
0,73323972
0,73989412
0,74456312
0,74727844
0,74801736
0,7477132
0,74739352
0,74205234
0,7387539
0,7344197
0,73306872
0,73465812
0,73721824
0,74177406
0,74633822
0,75387314
0,76035986
0,76682572
0,77027908
0,77372198
0,77511948
0,77550064
0,77391664
0,76835108
0,76379292
0,76226604
0,7607052
0,76214548
0,75958038
0,7610442
0,76554478
0,77408788
0,78068192
0,78426944
0,78684256
0,7893914
0,79388072
0,7934442
0,789952
0,78345098
0,77993346
0,77840408
0,7728819
0,7673169
0,7647508
0,7661671
0,7696051
0,7730878
0,77257812
0,77401548
0,7804588
0,78584742
0,78828412
0,78668924
0,7820876
0,7814572
0,77879366
0,77615774
0,77056216
0,7680052
0,76839292
0,76774872
0,76707974
0,76643816
0,76780738
0,77515724
0,78048286
0,7847979
0,78711392
0,79039598
0,79469966
0,79605002
0,79142616
0,78381294
0,7791815
0,77450614
0,76986044
0,76219456
0,75654592
0,75386062
0,75614736
0,75640188
0,7546014
0,75886056
0,76410212
0,76839428
0,77172716
0,76904788
0,7663614
0,76764886
0,76489982
0,75910942
0,75231854
0,74453766
0,74371248
0,74389572
0,74208228
0,74128562
0,74448216
0,75167822
0,75694832
0,75920014
0,75839132
0,75958816
0,76280228
0,7600188
0,75420484
0,7424062
0,73654506
0,73471356
0,7319033
0,72808708
0,72523996
0,72741234
0,73257998
0,73676418
0,73890196
0,7409744
0,7449804
0,74900638
0,7480476
0,74410432
0,74216108
0,7372057
0,73525118
0,7332898
0,72933702
0,72941886
0,7294542
0,73248344
0,7355168
0,7395606
0,74461494
0,74763116
0,75066742
0,75165488
0,74870662
0,74581642
0,741875
0,73592692
0,72999082
0,72402534
0,7180886
0,71514262
0,71320338
0,71127132
0,7113867
0,71447808
0,71663262
0,71879524
0,7210034
0,7231916
0,72342978
0,72569728
0,72389626
0,7210524
0,71825374
0,7154453
0,71463462
0,70983896
0,70797294
0,70408302
0,70214984
0,70218848
0,70315222
0,70913116
0,7121184
0,71812102
0,72415466
0,72920404
0,73328208
0,73241866
0,73153712
0,7296786
0,72789076
0,7201482
0,7144375
0,7086845
0,70892544
0,71015494
0,70941346
0,7117109
0,71505478
0,72344276
0,7318237
0,73415538
0,73447002
0,7358572
0,73727712
0,73565458
0,73002398
0,72140274
0,71677538
0,713173
0,7125273
0,70885404
0,70811732
0,71140738
0,71673862
0,72511004
0,72749098
0,73090418
0,73433882
0,73575446
0,7371821
0,73167018
0,72612896
0,7216266
0,72012032
0,71564652
0,71014708
0,706677
0,70724446
0,7117669
0,71531088
0,71881042
0,72227296
0,72874258
0,73324298
0,73573758
0,73229398
0,73085178
0,73038112
0,72697072
0,7235159
0,71506336
0,71258996
0,71311314
0,71357328
0,71303214
0,71248382
0,71595526
0,72143338
0,725884
0,72732318
0,72776462
0,73017154
0,73351522
0,730822
0,7260916
0,72130418
0,71950384
0,71963912
0,71678742
0,71292724
0,71106542
0,71318542
0,71727634
0,7193698
0,7174901
0,71763074
0,72278414
0,72395562
0,72408976
0,71921006
0,71729476
0,7164396
0,71253674
0,70763082
0,7017334
0,69687562
0,69699478
0,69716012
0,6953089
0,69543066
0,70162738
0,70984712
0,717003
0,72217052
0,7253372
0,72945036
0,73463866
0,73379698
0,7299744
0,72415086
0,71832516
0,71645186
0,71255116
0,71166922
0,70878676
0,7089443
0,71410356
0,71826576
0,72647824
0,73074924
0,73497754
0,74019506
0,7414341
0,73964756
0,73788444
0,73410414
0,72933074
0,72252106
0,71471738
0,71089222
0,70706934
0,70829068
0,7094812
0,71365568
0,71884146
0,72299516
0,72814868
0,73230942
0,73451674
0,7337024
0,7318755
0,7290595
0,72424582
0,71944788
0,7146371
0,71378434
0,71095242
0,71310906
0,71319586
0,71728774
0,722348
0,72740786
0,73247078
0,73454484
0,73558662
0,73669412
0,73684386
0,73394044
0,72601422
0,71913762
0,71524728
0,7133499
0,7094545
0,70550812
0,70359118
0,70770586
0,71283758
0,71796204
0,71810198
0,71926732
0,72237836
0,7234754
0,72358624
0,7186827
0,71379012
0,71195058
0,70906944
0,70515758
0,69924204
0,6963656
0,70043618
0,70451538
0,70660752
0,7097089
0,7128162
0,72093006
0,7270563
0,72918982
0,72931286
0,72738066
0,7284618
0,72656898
0,72166082
0,71677178
0,70988326
0,70903902
0,70819326
0,70231604
0,70049116
0,70268734
0,71085842
0,71803036
0,72114782
0,7252908
0,7324821
0,7356849
0,73788888
0,734102
0,72924174
0,72738846
0,72250598
0,7166249
0,7118136
0,7099895
0,71318918
0,71535222
0,72057052
0,72575506
0,73689146
0,74904698
0,75616304
0,76026636
0,7623651
0,7654907
0,76956272
0,77058986
0,76764758
0,76474324
0,76977736
0,77579906
0,78386886
0,79491164
0,80395546
0,81805
0,8331459
0,84925344
0,86039434
0,8725332
0,88470678
0,89687262
0,90499584
0,90705446
0,9130458
0,92004592
0,92906704
0,93810522
0,94617162
0,95924552
0,97529416
0,99333418
1,01231608
1,02928642
1,04520686
1,05917392
1,0721646
1,08018376
1,08322746
1,08325006
1,08327452
1,08133104
1,07736952
1,07244544
1,06751946
1,06458566
1,06464712
1,06573008
1,0648429
1,06399778
1,06312692
1,06025132
1,05939806
1,0524942
1,0425738
1,03167582
1,01978792
1,00793082
0,9940642
0,98014088
0,96920468
0,95826448
0,95029344
0,94225652
0,9352963
0,93037232
0,9244721
0,92049746
0,9114889
0,901516
0,89155252
0,87957372
0,8665531
0,84649322
0,82742326
0,80931004
0,79025498
0,7721787
0,75211966
0,73706338
0,7280068
0,72002072
0,71105068
0,70513312
0,70319942
0,70426626
0,70229292
0,69627494
0,68828896
0,68233434
0,67734254
0,6673273
0,65430504
0,64332476
0,63931922
0,63534606
0,63234112
0,62731118
0,6263261
0,63234882
0,63943706
0,64252714
0,64058058
0,64064138
0,64368608
0,64271084
0,6376988
0,6276785
0,61965646
0,61464814
0,60963158
0,60164426
0,591641
0,5856579
0,58462814
0,58257786
0,57946554
0,57341202
0,56632416
0,5632393
0,55707924
0,54792766
0,53479418
0,52468956
0,52054192
0,51638424
0,5172384
0,516112
0,5249795
0,5438512
0,56872278
0,59961356
0,63444858
0,6832319
0,7439998
0,80777186
0,87659644
0,9544139
1,04526244
1,14311842
1,24295208
1,35176006
1,4725371
1,60334188
1,7401419
1,88597396
2,03880674
2,19663754
2,35745348
2,52027694
2,67708444
2,82887576
2,9766335
3,1114089
3,23321872
3,34102846
3,43084114
3,49966322
3,54452012
3,568399
3,56928084
3,53917246
3,48406094
3,40497522
3,30588944
3,18074626
3,03663026
2,87952138
2,7124004
2,5362452
2,35310824
2,1679176
1,9828011
1,80170546
1,6266151
1,4554822
1,29339754
1,1443184
1,01130296
0,88928714
0,78132876
0,68534286
0,60337916
0,53642774
0,47948624
0,43357774
0,38964282
0,35464212
0,32762838
0,3055762
0,28653186
0,26745338
0,2544218
0,24838802
0,24533798
0,24534758
0,24637682
0,25235168
0,26627362
0,28220692
0,2951257
0,30808446
0,32003948
0,33299534
0,3449256
0,34986942
0,35182564
0,3527883
0,3556924
0,35860596
0,35744322
0,35731678
0,36023346
0,3661544
0,37405994
0,37892176
0,38475518
0,39360454
0,40245016
0,40929016
0,41006458
0,41086154
0,41064246
0,41039834
0,40817462
0,40190566
0,39860736
0,39831462
0,40001188
0,40171656
0,40242336
0,40712496
0,41685534
0,42451596
0,4292038
0,42990288
0,4335738
0,4372554
0,43594934
0,43267184
0,42640202
0,4240889
0,42270062
0,41937412
0,41606484
0,41375438
0,41850388
0,42621264
0,43390498
0,43753716
0,44115122
0,44873484
0,45531334
0,45795586
0,45665094
0,45240064
0,4491525
0,44796568
0,44480196
0,43967928
0,43562496
0,4365575
0,44051884
0,44349262
0,44546944
0,45040786
0,46132706
0,47025954
0,47717874
0,48007692
0,48502552
0,49191846
0,49683372
0,49577138
0,49073702
0,4877006
0,48571158
0,48274094
0,48173822
0,48074294
0,4837907
0,4898091
0,49783306
0,50688786
0,5159418
0,526943
0,53797494
0,54605424
0,5500564
0,55298132
0,5548523
0,55571758
0,55353426
0,55131174
0,55108116
0,5508349
0,55455134
0,5612729
0,57101102
0,57980446
0,58856862
0,5993742
0,608187
0,61704384
0,62293212
0,62586412
0,6297622
0,62873128
0,6277519
0,62674688
0,62769242
0,63168252
0,63565828
0,64059876
0,64849274
0,65842838
0,67239592
0,68336996
0,69434274
0,70236238
0,70941762
0,71547776
0,71952276
0,721617
0,7216661
0,72273716
0,7248055
0,72788292
0,73189516
0,7389504
0,74999532
0,7619781
0,77596452
0,78790534
0,80088394
0,81387032
0,826823
0,83776894
0,84477344
0,8478297
0,8528675
0,86095164
0,86898854
0,87498654
0,88199646
0,89403218
0,90807814
0,9210911
0,93406232
0,94802536
0,96604352
0,98102148
0,99498054
1,00396094
1,01194022
1,02190568
1,02886652
1,03681552
1,03670964
1,03962486
1,04656672
1,05549596
1,06244036
1,06944666
1,07746546
1,09147878
1,1064969
1,11850488
1,13152592
1,14557272
1,16058936
1,17462764
1,18471632
1,19087258
1,19806954
1,20732194
1,21453002
1,21876776
1,22201828
1,22924108
1,23849068
1,24973618
1,2559204
1,2671421
1,2793258
1,2914421
1,2995756
1,30266892
1,3067392
1,31187142
1,31199168
1,30812012
1,29923674
1,29531842
1,29540834
1,29355076
1,29269014
1,28883716
1,29094204
1,2960333
1,300101
1,29916994
1,29517882
1,29220348
1,28922668
1,28028918
1,26738488
1,25045106
1,2345612
1,21969936
1,20277764
1,18586566
1,16698604
1,15416836
1,14233872
1,13153404
1,11880656
1,1031054
1,08936374
1,07464212
1,05692992
1,03220768
1,0064918
0,97981424
0,95414462
0,92642174
0,8946881
0,86798564
0,84024064
0,81651382
0,79077344
0,76803188
0,74731928
0,7246325
0,70393968
0,67927438
0,65562586
0,62900612
0,60240368
0,57585558
0,5462441
0,51664244
0,4900191
0,46640636
0,44374392
0,42406706
0,40337708
0,38667022
0,3719974
0,35829646
0,34463046
0,32899376
0,31437452
0,29676534
0,27808972
0,2594569
0,23780742
0,2161541
0,19549142
0,17483404
0,15518606
0,13550182
0,12077332
0,10908642
0,0974046
0,0887694
0,078139
0,07153426
0,06792452
0,06333396
0,05872054
0,04909562
0,0404621
0,03082336
0,02215226
0,01149888
-0,00112166
-0,01170962
-0,01729056
-0,02181434
-0,0262982
-0,0287678
-0,02716214
-0,0215391
-0,01492466
-0,01331618
-0,01375622
-0,01215366
-0,00953502
-0,01194718
-0,01641548
-0,0258648
-0,03233272
-0,03574176
-0,03815438
-0,04452842
-0,0488773
-0,04723634
-0,04361784
-0,03994696
-0,03825684
-0,03662206
-0,03103076
-0,02846724
-0,02894052
-0,03339646
-0,03684028
-0,03727906
-0,0407073
-0,04307844
-0,0484158
-0,0497601
-0,04610018
-0,04047782
-0,03583456
-0,03316788
-0,02649092
-0,01786122
-0,01120868
-0,00755328
-0,00787428
-0,0071555
-0,00440184
-0,00564754
-0,00891112
-0,01410832
-0,01329104
-0,01150978
-0,0097383
-0,00794412
-0,00817874
-0,00241716
0,00634332
0,01215056
0,01493864
0,01574664
0,0205354
0,02333952
0,02115464
0,01597744
0,01279892
0,00963842
0,00850972
0,00539678
0,00127668
0,00322394
0,00611706
0,01303966
0,01898222
0,0229968
0,02804098
0,03507974
0,04010468
0,04005806
0,03802798
0,03602242
0,03298676
0,02989702
0,02380316
0,01765654
0,01349994
0,01230252
0,0100712
0,0068629
0,00766264
0,01145248
0,01727332
0,02407716
0,03082076
0,03451146
0,03823626
0,04092392
0,04161296
0,0402392
0,0359326
0,03266036
0,0293994
0,02616972
0,02397534
0,02174936
0,02149064
0,02622538
0,02897992
0,03675998
0,04056264
0,04537952
0,05014246
0,05588258
0,05760772
0,05429952
0,04999574
0,04772308
0,04543654
0,04115464
0,03589778
0,03265802
0,03442488
0,03918406
0,04192194
0,04666602
0,05345066
0,06127926
0,06808454
0,06991332
0,06877068
0,06663198
0,06653566
0,06344518
0,05738744
0,05130778
0,0462096
0,04506854
0,04190324
0,04177512
0,0416719
0,04558554
0,05254132
0,05746526
0,05735632
0,05821918
0,06004854
0,05989762
0,05780758
0,05075868
0,04376372
0,04072646
0,0396574
0,03656444
0,03248924
0,03042596
0,034385
0,03940786
0,04144542
0,0425267
0,04465184
0,04978542
0,05186304
0,04894712
0,0450792
0,04116114
0,04020204
0,03521896
0,03123996
0,02523168
0,02326098
0,02335206
0,02340442
0,02543544
0,0254202
0,03035202
0,0342845
0,03718962
0,03611216
0,03805444
0,03991776
0,04081744
0,03765664
0,03253784
0,02841066
0,02626222
0,025167
0,02304476
0,01990472
0,02074396
0,02254854
0,02636636
0,03222284
0,03709064
0,04595502
0,05181304
0,05664754
0,05755646
0,0555135
0,05650434
0,05547872
0,05242192
0,04730474
0,04219742
0,0401268
0,04102452
0,0409587
0,04391894
0,04793424
0,05294752
0,05897204
0,06203242
0,06810518
0,06714878
0,06716916
0,06618274
0,06318996
0,05919702
0,05222124
0,04825094
0,04732122
0,04636792
0,0474496
0,0475542
0,05266298
0,06079614
0,07090766
0,07805506
0,08121246
0,08239416
0,08662624
0,08783856
0,08508298
0,08037372
0,074724
0,07402784
0,07430188
0,07260984
0,07189256
0,07413258
0,08233292
0,08955204
0,09478674
0,0960195
0,09831826
0,10269068
0,10609174
0,10446584
0,10085422
0,09623558
0,09461674
0,0919942
0,08837194
0,08575172
0,08717074
0,09057296
0,0959076
0,09622326
0,1005448
0,10589286
0,11330456
0,11776244
0,1171801
0,11554704
0,11491866
0,11429576
0,1106713
0,10604508
0,1024448
0,10177884
0,10106526
0,0983987
0,09772648
0,09904578
0,10639288
0,11174196
0,11610322
0,11748134
0,12091758
0,12833446
0,13072488
0,13116792
0,12659636
0,12405422
0,12551762
0,12198986
0,11848838
0,1139678
0,11446482
0,11791512
0,12034878
0,12274526
0,1251553
0,13250522
0,14289114
0,14928362
0,15168148
0,1520847
0,15348778
0,1538459
0,15019292
0,14350616
0,13681762
0,13213454
0,13142536
0,13073108
0,12906124
0,13246498
0,13988068
0,1522581
0,1616143
0,16597104
0,17128366
0,17853602
0,1827525
0,18298526
0,17818296
0,1743353
0,17347768
0,1696444
0,16779066
0,16298288
0,16421876
0,17041118
0,17557046
0,1827517
0,18892096
0,19706742
0,20526972
0,21041356
0,21050844
0,20860552
0,20770856
0,20481156
0,19995694
0,19610254
0,1911833
0,1902758
0,19335388
0,19547558
0,20059108
0,20567124
0,21474806
0,2218257
0,22689972
0,22898152
0,23008564
0,22913942
0,22916106
0,22420948
0,21823746
0,21526712
0,2122878
0,2123017
0,2122724
0,21520812
0,21816684
0,22407386
0,23099034
0,23793852
0,24288482
0,24582596
0,24771646
0,24858962
0,24742186
0,24128508
0,23413296
0,22802546
0,22493284
0,22086342
0,21376828
0,21167328
0,2106141
0,21355036
0,2184561
0,21931878
0,22223212
0,2271897
0,2331582
0,23817682
0,23721998
0,2362573
0,2353325
0,23441954
0,22847504
0,22059024
0,21373804
0,21294782
0,21412798
0,21434888
0,2145687
0,21981268
0,23003718
0,24328766
0,25555616
0,26282824
0,2691325
0,27741338
0,2857533
0,29102444
0,29131158
0,29255268
0,29773374
0,30292074
0,30710832
0,31324888
0,32235112
0,33949486
0,35457866
0,36865138
0,38379122
0,39896408
0,41712892
0,43028122
0,43935834
0,44645632
0,45459136
0,4627088
0,46786792
0,47402026
0,48221792
0,49541354
0,5106329
0,52483154
0,5400633
0,55835438
0,57862144
0,59684874
0,6120848
0,6223035
0,6315113
0,64177164
0,64696558
0,64718292
0,64439088
0,64456958
0,6457742
0,64596396
0,64613386
0,64425782
0,64739646
0,653561
0,65870998
0,6579046
0,65504264
0,6541411
0,65221088
0,64327328
0,63030628
0,61329976
0,60031118
0,58929066
0,57426736
0,56126588
0,54828102
0,53928084
0,53328798
0,52728502
0,52035282
0,5134669
0,50659178
0,4996884
0,4887844
0,47488982
0,45895122
0,44302814
0,42711128
0,40920094
0,39133036
0,37446696
0,35861002
0,34779356
0,33692276
0,32900794
0,32107754
0,31416436
0,30925332
0,3043289
0,29842272
0,2924873
0,28657428
0,27968728
0,2717699
0,26282092
0,25186298
0,2428655
0,23389686
0,22491168
0,21794934
0,21398488
0,21301562
0,21199554
0,21699244
0,21996456
0,22189154
0,22583418
0,22779856
0,22876248
0,2267274
0,22369678
0,21765678
0,21162494
0,20555666
0,19645664
0,19233422
0,1882297
0,18510338
0,18298344
0,17993176
0,17686532
0,17481804
0,17477064
0,17173456
0,16470452
0,15670246
0,15369678
0,14972204
0,1437566
0,13978718
0,14080556
0,14976596
0,16073586
0,17471304
0,19773896
0,22876806
0,270802
0,31786568
0,37287974
0,43289488
0,50186614
0,58182424
0,66875126
0,76170624
0,85872562
0,96774522
1,09075944
1,21877908
1,34983458
1,48882412
1,63982812
1,7968289
1,95477478
2,10874434
2,2607201
2,41270792
2,55964974
2,69358044
2,80950676
2,91448754
3,00852452
3,0836068
3,1326573
3,15765676
3,1646393
3,1476186
3,10063856
3,02566772
2,9306956
2,81771882
2,6877326
2,53879144
2,37684782
2,204844
2,02784546
1,8508485
1,66983684
1,49282554
1,31778046
1,15473908
0,99868154
0,85265942
0,72170872
0,60277826
0,4958206
0,4048847
0,32292262
0,25199116
0,19202442
0,1430075
0,10404022
0,06710684
0,03716024
0,0131747
-0,00684584
-0,02086964
-0,03483052
-0,04483686
-0,05081978
-0,0497439
-0,0476457
-0,0396078
-0,0285902
-0,01558404
0,00247034
0,0185263
0,03359068
0,04664242
0,05967218
0,07067784
0,07770014
0,08078538
0,08188532
0,08494864
0,0880181
0,09203578
0,09598934
0,100977
0,10695636
0,1159047
0,12882446
0,13980466
0,1487426
0,15271988
0,15770652
0,16170336
0,16272492
0,15974858
0,152777
0,15086176
0,14893774
0,1479821
0,14598626
0,14702982
0,15203412
0,15999212
0,16894236
0,17382488
0,18066868
0,18854948
0,1953983
0,19928344
0,1972186
0,19616362
0,19605978
0,19697568
0,19386062
0,1917633
0,1916244
0,19650602
0,20341246
0,2083607
0,215252
0,22220032
0,2321026
0,2420282
0,24800498
0,25105266
0,2520958
0,25514178
0,25416474
0,25021538
0,24625162
0,2453229
0,24742514
0,24946368
0,25051428
0,25555228
0,26753906
0,27959268
0,29071432
0,29786188
0,30605968
0,3162
0,32434264
0,32743312
0,32752546
0,32759288
0,33068986
0,33281808
0,33087826
0,32899732
0,33208794
0,3391575
0,34728942
0,35345388
0,35859594
0,36868282
0,382768
0,39184016
0,39989888
0,40297712
0,40808562
0,41320742
0,41339148
0,4115946
0,40574818
0,40387526
0,40603228
0,4091661
0,41031816
0,41343478
0,42360998
0,43675904
0,44892214
0,45606692
0,4632702
0,47445224
0,4836588
0,48780868
0,48692208
0,4870159
0,48610772
0,4881658
0,4902368
0,49123596
0,4962383
0,50318236
0,5151312
0,52608764
0,54000854
0,55194182
0,5648827
0,57485096
0,58188886
0,58694494
0,59302444
0,597134
0,599267
0,6023905
0,60655604
0,61277328
0,620973
0,63020146
0,6434192
0,65668182
0,67189686
0,68914828
0,70338906
0,71665976
0,72587782
0,73306914
0,74019106
0,74430498
0,74941328
0,75050586
0,75558314
0,76170002
0,7708323
0,78196134
0,79309386
0,80825208
0,82642042
0,84362724
0,86282258
0,87603844
0,8882027
0,90142342
0,91261482
0,92280408
0,9269785
0,93214894
0,94134472
0,95055902
0,95881202
0,96909994
0,98042144
0,9987622
1,01612778
1,03250904
1,04689918
1,06223778
1,079559
1,0938956
1,10425676
1,1105781
1,11787008
1,12714042
1,13147036
1,13484756
1,13915482
1,14749924
1,15583262
1,16311952
1,16744674
1,17580382
1,18915642
1,20148198
1,21180662
1,21916418
1,22649932
1,23483762
1,23815556
1,2415131
1,23683186
1,23315544
1,23244438
1,22872986
1,2239737
1,22021956
1,21842368
1,22161772
1,22183796
1,22407618
1,22526726
1,2264514
1,22965736
1,22687572
1,22313354
1,21343184
1,20368638
1,19492642
1,18121094
1,16647706
1,15169674
1,1399581
1,13019672
1,11842964
1,10668122
1,09589798
1,089105
1,08031988
1,0655864
1,04888716
1,03212966
1,01339198
0,99072728
0,96407502
0,9384494
0,91280356
0,88817176
0,86357032
0,8410175
0,82048512
0,80192348
0,78540504
0,76984952
0,75333716
0,73378442
0,71422738
0,6956601
0,67213698
0,64660744
0,61905084
0,5924837
0,56484564
0,53724248
0,51071356
0,48520108
0,46269978
0,44124946
0,42383134
0,40738888
0,39192372
0,37648622
0,36102058
0,34456862
0,32609174
0,30660488
0,28712176
0,26758872
0,24708272
0,22959708
0,2111303
0,19466656
0,18125428
0,16981788
0,16042644
0,15107848
0,14371854
0,13843558
0,13414526
0,12990758
0,12268072
0,11543454
0,1091808
0,10289738
0,09260318
0,08328584
0,07601634
0,07077188
0,06649738
0,0622362
0,05796954
0,05673368
0,06153418
0,06534318
0,06913466
0,0739955
0,07888476
0,08475306
0,0875777
0,08543084
0,08329304
0,0801635
0,07705162
0,07095922
0,06081922
0,05568236
0,05250862
0,05227852
0,05109542
0,05095026
0,05485574
0,06174
0,06959784
0,073457
0,07431904
0,07512556
0,07693862
0,07571728
0,07152352
0,06427326
0,06106374
0,06085232
0,06265248
0,06449034
0,06532268
0,071218
0,08317114
0,0941285
0,1031357
0,1091906
0,11726314
0,12631292
0,13038058
0,13138054
0,12842978
0,12745156
0,12549182
0,1225248
0,11853186
0,11556268
0,11861548
0,12368028
0,12878442
0,13391838
0,14007474
0,14826758
0,15551574
0,15979544
0,16007686
0,16129866
0,16154812
0,1617963
0,15802726
0,15528832
0,15560544
0,15690792
0,16015738
0,16436152
0,16653
0,17373186
0,18390246
0,1930624
0,19826872
0,200477
0,2036625
0,20588406
0,2041068
0,2003306
0,1945786
0,1908766
0,18714512
0,18441128
0,18271038
0,1829631
0,18524806
0,18952432
0,1917594
0,19500158
0,19825734
0,20249034
0,20770506
0,2079337
0,20716858
0,20335402
0,20053468
0,19775248
0,1969809
0,19516658
0,19137352
0,18957198
0,19074462
0,19492916
0,20010804
0,20427958
0,2113916
0,22053554
0,22865094
0,23378368
0,23795752
0,24009508
0,2432461
0,2434218
0,23863806
0,23287198
0,22807338
0,2272761
0,22551818
0,22568866
0,22484786
0,22593662
0,23300952
0,24005048
0,2430793
0,2451018
0,24713214
0,24815122
0,24919944
0,24324666
0,23633364
0,23043426
0,22546394
0,22247094
0,2155133
0,21349742
0,21346248
0,21743114
0,22235396
0,2262223
0,22905962
0,2369058
0,24375558
0,24757236
0,24540776
0,24325828
0,24413178
0,2439857
0,24084684
0,23768072
0,23747098
0,24326804
0,2480396
0,25375732
0,2574834
0,2651657
0,27486568
0,28157964
0,28527578
0,28600064
0,2867177
0,28847546
0,28528456
0,28010166
0,2739097
0,2716959
0,27246418
0,27023578
0,26702922
0,26679542
0,27055234
0,27725922
0,28096956
0,28267754
0,28240268
0,28611258
0,28782178
0,28548494
0,28113332
0,27676398
0,27540776
0,27303058
0,26960686
0,26619222
0,26678578
0,27137324
0,27597654
0,28058368
0,2821703
0,2897615
0,29742342
0,30409806
0,30678202
0,30743508
0,30913316
0,30883082
0,30651916
0,30517046
0,30281164
0,30043728
0,30105072
0,29963178
0,30124994
0,30289326
0,30753584
0,31514734
0,32171164
0,32726884
0,33282788
0,3364452
0,341069
0,34263964
0,3422446
0,33785912
0,3324915
0,32815456
0,3238474
0,32454174
0,32021452
0,31891834
0,3216583
0,32435924
0,32906364
0,33477374
0,33948376
0,34424176
0,34696884
0,34669872
0,34544014
0,34225114
0,3400532
0,33684736
0,33165266
0,33046448
0,32923754
0,33201306
0,33676298
0,3424982
0,3491697
0,3568434
0,36551072
0,3731332
0,37580662
0,37845052
0,37910216
0,3797181
0,375321
0,36689116
0,36147998
0,35908138
0,36064526
0,3611943
0,361703
0,36423172
0,37175458
0,38325604
0,38974484
0,3932385
0,39576116
0,39833148
0,39985912
0,3994327
0,3919805
0,38558108
0,38318764
0,37981444
0,37645818
0,37114362
0,36984624
0,37454828
0,3802704
0,38598532
0,38666152
0,39133828
0,39902034
0,40568962
0,40940082
0,40609646
0,40475368
0,4054072
0,40504102
0,40266426
0,39735212
0,39607338
0,3997901
0,40149536
0,40416866
0,40782832
0,41545722
0,42405828
0,43168962
0,43729076
0,44189474
0,44751742
0,45311586
0,45373312
0,4503385
0,44894188
0,44752172
0,44613058
0,44475546
0,44236922
0,44401858
0,44969234
0,4564167
0,46318862
0,47096328
0,48272542
0,49347294
0,5012589
0,50511662
0,5059649
0,50784392
0,5096794
0,50649316
0,50130796
0,49608768
0,49386922
0,4936473
0,49240008
0,4911666
0,49097152
0,49574846
0,50155594
0,50639378
0,51022776
0,51307852
0,51790346
0,519657
0,52039184
0,51911476
0,51783336
0,51757618
0,51936442
0,52112876
0,52492662
0,53168812
0,53942372
0,5511792
0,56090858
0,57062056
0,57632408
0,58002536
0,58472236
0,58538664
0,58301756
0,5776626
0,57028836
0,56590802
0,56353378
0,5600981
0,55666252
0,55716892
0,56368718
0,57321512
0,58176664
0,59028792
0,6027748
0,61319622
0,62355068
0,62786134
0,63122284
0,63661176
0,64301016
0,64834852
0,6516694
0,65700908
0,6643389
0,6756379
0,69098406
0,7033505
0,71767176
0,73397858
0,75024238
0,76544096
0,77759346
0,788753
0,799924
0,81110048
0,81933884
0,82451986
0,83274538
0,84493508
0,85910658
0,87122962
0,8803859
0,89254952
0,90970794
0,9249219
0,93716472
0,94640524
0,95660382
0,96781984
0,9740834
0,97534694
0,9746344
0,97394
0,97230082
0,9666455
0,95503264
0,94744
0,94280812
0,94216728
0,93856006
0,93393268
0,93023762
0,93060048
0,93190676
0,92916572
0,92243668
0,9147048
0,90596794
0,89424982
0,8784838
0,85769642
0,83891036
0,82305826
0,80623162
0,78941782
0,77060932
0,7577981
0,75302218
0,747259
0,74049368
0,7297406
0,71993784
0,7111062
0,70134254
0,68661106
0,66887326
0,65213836
0,63743372
0,62268486
0,60697994
0,59328012
0,58357702
0,57987652
0,57612322
0,57336734
0,5706367
0,57090758
0,5731669
0,5714237
0,56971836
0,5620498
0,55641222
0,55080242
0,54322006
0,53666872
0,53009008
0,52750936
0,52489644
0,52529058
0,52570286
0,53211708
0,53950508
0,54784826
0,55214494
0,55538544
0,5596464
0,56190344
0,56214654
0,558385
0,55065248
0,54386406
0,53701576
0,53018206
0,52233916
0,5154885
0,511662
0,50883284
0,50605088
0,5022718
0,49744736
0,4955851
0,495698
0,49379572
0,49294728
0,49007942
0,4931842
0,49828568
0,50838736
0,5224641
0,5405978
0,56977178
0,60691148
0,65201294
0,70517194
0,76938268
0,84358686
0,92782938
1,01704144
1,11825724
1,22448484
1,33870416
1,45984902
1,58995792
1,72405072
1,85819176
1,99531696
2,14148046
2,29164174
2,44180526
2,58401878
2,72728882
2,86857042
3,0038539
3,12814672
3,2294855
3,31680748
3,38815962
3,44054848
3,45791062
3,44829806
3,41571222
3,36313114
3,28350024
3,17684022
3,05220534
2,91152682
2,76386574
2,60520796
2,4385375
2,26786882
2,09616746
1,92644908
1,7586778
1,59088104
1,43306768
1,28324816
1,14544956
1,01566306
0,89491392
0,79115072
0,70337478
0,62966108
0,56697698
0,51323538
0,47348082
0,44576198
0,42497968
0,4082046
0,3943824
0,38660506
0,383888
0,38117428
0,37742462
0,37368932
0,3778966
0,38515266
0,39039862
0,3976871
0,40397068
0,41828098
0,43352464
0,44871308
0,46190534
0,47214302
0,4853729
0,49662196
0,5038998
0,50912316
0,51037454
0,51260296
0,51587232
0,5171596
0,51742278
0,52070646
0,52702374
0,5373788
0,54576824
0,55318342
0,56264264
0,57207616
0,58355378
0,5920814
0,59561838
0,60014802
0,60073384
0,60335356
0,60192928
0,59949878
0,59907474
0,5976373
0,60014572
0,6006731
0,60225896
0,6058737
0,61248256
0,61903726
0,62460686
0,63016328
0,63370038
0,63817544
0,64064146
0,64312558
0,64264894
0,64110416
0,63951844
0,63689262
0,63725086
0,63555678
0,63793814
0,64130494
0,6476704
0,65502564
0,66132508
0,67063166
0,67796872
0,68532816
0,69064864
0,69094038
0,69022618
0,69052124
0,6888771
0,68726712
0,68466202
0,6830636
0,6854511
0,68986388
0,69532856
0,70079904
0,70726406
0,71976666
0,7273037
0,73583456
0,7393006
0,74280746
0,74629238
0,74878418
0,74628266
0,74278232
0,74031488
0,74383664
0,74835514
0,75284696
0,75933884
0,7688015
0,78325364
0,79666014
0,80608458
0,81453164
0,82493648
0,83631596
0,84265436
0,84297408
0,84331486
0,84659526
0,85086172
0,85419338
0,85551164
0,8608941
0,87128062
0,88268026
0,89308256
0,9025316
0,91398006
0,9284767
0,94000492
0,9495919
0,95221158
0,95686884
0,96255378
0,96620364
0,96681506
0,96540586
0,96798366
0,9745006
0,98208588
0,98969158
0,99727278
1,0078699
1,0224772
1,03606264
1,04661126
1,05417186
1,06370768
1,07525458
1,081772
1,08530458
1,08781458
1,09428802
1,10078148
1,10730564
1,11181674
1,1202802
1,13274434
1,146205
1,15968226
1,1722118
1,18676596
1,2022703
1,2167821
1,2292811
1,2397354
1,2501903
1,25963808
1,26814262
1,27463242
1,2780814
1,28649424
1,2978573
1,30820624
1,32161856
1,33401384
1,35043908
1,36785012
1,3862453
1,40368518
1,41810542
1,43249666
1,44486158
1,45524508
1,4636668
1,47004712
1,47636506
1,48468416
1,4930441
1,50237128
1,51273304
1,52714786
1,54456838
1,56100466
1,57841516
1,59281488
1,606189
1,61852534
1,62792158
1,63634726
1,6397973
1,64323888
1,64567578
1,64915082
1,65663746
1,66114
1,66869146
1,67925766
1,6917878
1,7033754
1,71297306
1,72149236
1,73001452
1,73750278
1,73997382
1,73942062
1,73581496
1,73320976
1,72964064
1,7260189
1,7213499
1,72073974
1,72113068
1,72453294
1,7239776
1,72542574
1,72684298
1,72928512
1,72976956
1,72424472
1,71874706
1,71122502
1,70070392
1,68920092
1,67172266
1,65518668
1,6406976
1,62617612
1,61168392
1,59618206
1,5796468
1,56712388
1,5566322
1,54412124
1,52864618
1,5131591
1,49667232
1,47911812
1,45752592
1,43092392
1,40533114
1,3797612
1,355194
1,32858212
1,29792702
1,27032784
1,24774224
1,22413662
1,20256994
1,1779985
1,15741556
1,14084846
1,12425832
1,10469132
1,08114336
1,05861704
1,03905962
1,01653788
0,98900174
0,95941096
0,93389268
0,91337
0,89080544
0,866221
0,8446225
0,8289781
0,81729588
0,8036227
0,79097806
0,77539354
0,7627928
0,75317074
0,7405285
0,72291892
0,7072656
0,69257304
0,6799163
0,66528848
0,64867188
0,63608602
0,63049322
0,62590696
0,62326102
0,61761932
0,614974
0,61534322
0,61370856
0,60907596
0,60245958
0,5968448
0,59122134
0,58359908
0,57601604
0,56643976
0,56287692
0,56232424
0,56177456
0,56128508
0,5618197
0,56833556
0,57590508
0,5804218
0,58492056
0,58536154
0,58679494
0,5882383
0,58566242
0,58210462
0,57654888
0,57296862
0,57139242
0,56780922
0,56716424
0,56846796
0,57084104
0,57817576
0,58352054
0,5888108
0,5941025
0,60036942
0,60567322
0,60801884
0,60942012
0,60885198
0,60728646
0,60677868
0,60426802
0,60174346
0,60121044
0,60269292
0,6051579
0,60857172
0,6120308
0,61545732
0,6208327
0,62721592
0,6326068
0,63401058
0,63542198
0,63590684
0,63541662
0,63392534
0,63241108
0,630894
0,62937318
0,6308288
0,63126878
0,63365446
0,6360075
0,64236102
0,64873654
0,65711476
0,66349108
0,66788312
0,6722373
0,67563898
0,67703486
0,67147068
0,66590074
0,66132176
0,65678464
0,6522075
0,6466044
0,64298664
0,6453751
0,64777802
0,65121412
0,65469672
0,6591865
0,66567264
0,67214972
0,67360812
0,67209956
0,67060732
0,67109316
0,66753518
0,66097838
0,65341236
0,6499116
0,65240952
0,65295368
0,65448082
0,6570287
0,66253898
0,67104164
0,6785141
0,679955
0,68035794
0,68072076
0,68108968
0,67947738
0,670821
0,66609782
0,66538352
0,66673102
0,66510124
0,66252338
0,66592482
0,67633838
0,68774924
0,69613566
0,7014627
0,70774862
0,71602346
0,72130456
0,72164138
0,71895242
0,71627182
0,71354656
0,70988682
0,7052318
0,69952772
0,69980602
0,70208054
0,70334688
0,70655214
0,70880062
0,71397918
0,72019158
0,72237238
0,72353506
0,7226531
0,71978456
0,71894486
0,71505088
0,71117064
0,70429316
0,70136098
0,69938312
0,69736568
0,69631898
0,69724984
0,7011703
0,70612498
0,70810294
0,7101094
0,71508338
0,71505108
0,7160954
0,71316892
0,7092934
0,7043964
0,69947176
0,69455114
0,68861654
0,68262592
0,67962944
0,6786247
0,67857794
0,68152556
0,68441664
0,69029316
0,69712218
0,70196362
0,70481182
0,7066358
0,70545826
0,70429622
0,70113926
0,69792176
0,69267474
0,68846916
0,68825466
0,69003286
0,6928021
0,69451522
0,69826442
0,7060317
0,71373116
0,71740178
0,71612638
0,71387942
0,71358962
0,71026928
0,70593774
0,69563196
0,68832924
0,68303226
0,68172716
0,6794745
0,67625154
0,67701088
0,68276156
0,69046562
0,69518656
0,69691012
0,69963876
0,70341906
0,70523684
0,7010461
0,6938713
0,68665456
0,68546716
0,68125434
0,67800022
0,67277754
0,67253638
0,67826996
0,68495078
0,68957376
0,6931828
0,69777456
0,70337488
0,70790356
0,708469
0,70398288
0,70151912
0,69807114
0,69167032
0,68522788
0,67977234
0,67831306
0,67879932
0,67932326
0,68082588
0,68430194
0,69174366
0,6971689
0,6995529
0,69992544
0,69922756
0,701564
0,6999474
0,69327904
0,68558144
0,67987876
0,68016534
0,6753797
0,67161096
0,66786724
0,66815804
0,67445354
0,67869608
0,6819041
0,68017412
0,68441512
0,6886242
0,68987188
0,68913908
0,68238358
0,67960288
0,67979732
0,67496544
0,66716532
0,6613621
0,65955258
0,66371968
0,66288954
0,66205338
0,666229
0,67333186
0,68341014
0,69051084
0,6936746
0,69680202
0,6979353
0,69906976
0,6962574
0,69138446
0,6855005
0,67967854
0,67586994
0,67207536
0,66829154
0,66756044
0,6697846
0,67301614
0,67723746
0,6804487
0,68468968
0,68691036
0,68812208
0,68936332
0,68658654
0,68278434
0,67894334
0,6770735
0,67821304
0,6803279
0,68541722
0,6945769
0,70674486
0,71893024
0,73411802
0,74629612
0,7605286
0,77276466
0,78295824
0,7891727
0,79434256
0,79752586
0,79964856
0,80470756
0,80483842
0,80893744
0,81600836
0,82713866
0,83924586
0,8513487
0,86546884
0,88361086
0,90276996
0,91688888
0,92805422
0,93924706
0,95241162
0,96353428
0,96767106
0,97283134
0,97996156
0,99211656
1,002308
1,00950174
1,01773108
1,02803316
1,04229738
1,05356894
1,05983444
1,06609468
1,07337844
1,07863904
1,0799663
1,0742767
1,06754398
1,06281336
1,05807398
1,05229992
1,04153706
1,03376216
1,02992286
1,0281471
1,02636384
1,0215858
1,01781322
1,0170918
1,01632904
1,01158632
1,00180522
0,99007024
0,98229806
0,9695284
0,95076454
0,92797376
0,90619926
0,88846368
0,87072408
0,85297062
0,83420858
0,82143358
0,81367164
0,80591314
0,8000966
0,78927738
0,78040492
0,77355804
0,7636728
0,75077124
0,7339229
0,72010744
0,70724722
0,69145196
0,67567956
0,6619352
0,6541409
0,6483521
0,64258156
0,63777486
0,63500708
0,63431782
0,6366437
0,63293308
0,62919092
0,62450246
0,62080418
0,61510866
0,6063974
0,59666952
0,5919233
0,59023554
0,58854558
0,58783612
0,58710206
0,59037754
0,59662576
0,60187258
0,60214206
0,6014256
0,60169892
0,60003112
0,5944161
0,5878048
0,57619508
0,56755412
0,55894424
0,54933344
0,54172352
0,53416416
0,528666
0,52816712
0,5266872
0,52719508
0,52372826
0,52328574
0,5248161
0,5253664
0,52793912
0,52752528
0,5291453
0,53674746
0,55330234
0,57587922
0,5994656
0,63607568
0,6856943
0,7472782
0,8138839
0,88948648
0,9780682
1,07759582
1,181145
1,28967454
1,40720796
1,53070266
1,65924932
1,7958091
1,93637492
2,07897212
2,2245929
2,37617998
2,52775562
2,67434666
2,81793568
2,9534979
3,08210668
3,19977566
3,30446016
3,38617316
3,44583628
3,4815183
3,49721108
3,48185278
3,43445832
3,36408664
3,27068926
3,15530646
3,0179512
2,8666147
2,70930796
2,54297942
2,3736249
2,19828264
2,02589094
1,86149574
1,6991599
1,5418627
1,38757944
1,24433972
1,11415498
0,99097796
0,87382744
0,76871028
0,68061032
0,60550698
0,54041118
0,48532418
0,44020606
0,40904992
0,3868566
0,37069812
0,3565508
0,3463437
0,34207448
0,34180302
0,34153346
0,33925126
0,34001094
0,34476406
0,35451264
0,36327128
0,3720342
0,3838378
0,4006373
0,42039054
0,43714742
0,45289832
0,46766544
0,4824268
0,4961765
0,50395208
0,50674922
0,50954316
0,51331658
0,51710626
0,51788346
0,51563288
0,51740754
0,52418866
0,5309634
0,5387381
0,5444392
0,55414726
0,56283928
0,57056338
0,5753103
0,58007604
0,58186446
0,58163956
0,5794429
0,57626206
0,5740845
0,57386276
0,57567706
0,57750324
0,58232406
0,58910184
0,59686476
0,60661982
0,61635296
0,62409688
0,62890276
0,63275758
0,63561276
0,63644148
0,63626324
0,63409082
0,6319624
0,63089654
0,62884196
0,6297663
0,63170004
0,6356338
0,64455092
0,65150778
0,65848488
0,6654615
0,67250312
0,6815357
0,68653296
0,69150382
0,69347334
0,69244568
0,69240758
0,68933296
0,68626994
0,6802035
0,6781991
0,6791711
0,6821856
0,68422644
0,68923358
0,70017492
0,7121149
0,72312808
0,7281877
0,73324072
0,73929862
0,7443319
0,74535
0,74134886
0,7373506
0,73632056
0,7383007
0,74032856
0,74235198
0,74634978
0,75734852
0,76740152
0,7764116
0,78441192
0,7934362
0,80544098
0,8124749
0,81652928
0,81661762
0,81669022
0,82180348
0,82486616
0,82797
0,82908302
0,83216858
0,84128932
0,85145266
0,86162316
0,87073854
0,87986914
0,89199836
0,89818286
0,90240092
0,90260632
0,90582784
0,91008256
0,9093013
0,90754426
0,9067882
0,91098446
0,91818236
0,92740694
0,9346407
0,94389714
0,95716974
0,97139102
0,98362556
0,99287906
1,00012706
1,00733066
1,01447476
1,01756682
1,0166133
1,01863526
1,02459042
1,03056088
1,03454062
1,0375161
1,04642964
1,06137086
1,07529444
1,08919048
1,09914302
1,11109704
1,1250827
1,13707906
1,14507672
1,14909148
1,15407736
1,16207382
1,16608712
1,17010312
1,17210378
1,18014998
1,19224128
1,20227922
1,2122896
1,22028166
1,23528146
1,2522515
1,26824492
1,28323084
1,29222332
1,30422458
1,31728278
1,32536322
1,33147012
1,3335813
1,3376639
1,34372532
1,34880152
1,35389996
1,36204128
1,37312752
1,387183
1,400209
1,41224584
1,42528762
1,43735142
1,44939684
1,4574604
1,46452312
1,46662778
1,46872896
1,46877334
1,46880922
1,47081528
1,47282842
1,47583852
1,48081384
1,48773602
1,49467956
1,50358086
1,51249466
1,51937438
1,52527484
1,5251823
1,52406936
1,5219568
1,51879996
1,51464364
1,50743938
1,5002731
1,4960886
1,49089034
1,48970398
1,4865284
1,48431096
1,48410664
1,48091502
1,4767416
1,46858152
1,45848718
1,44642398
1,4323787
1,41538476
1,39239722
1,37141054
1,35140988
1,33443104
1,31648548
1,29650314
1,27951754
1,26851934
1,25955046
1,2465524
1,23059396
1,2135926
1,20061248
1,18161672
1,1566099
1,12962128
1,10366122
1,08073042
1,05579122
1,02781578
1,00181884
0,98081168
0,9638196
0,9438092
0,92482086
0,90582306
0,8877701
0,87165418
0,8535212
0,83039506
0,80826022
0,78815878
0,76506998
0,74098034
0,71387358
0,69074966
0,67161612
0,65149964
0,63237448
0,61025002
0,59707218
0,58484196
0,575595
0,56635664
0,55709296
0,5497581
0,54345044
0,53418154
0,52189878
0,50761122
0,49433586
0,48304656
0,4657423
0,44943292
0,43519132
0,42692958
0,420617
0,41327748
0,40989324
0,40651776
0,40609686
0,4086603
0,40621398
0,40581982
0,40146182
0,39612764
0,392743
0,38436748
0,3770246
0,3696807
0,36432388
0,3610386
0,3577032
0,35540268
0,3571226
0,3598271
0,3655851
0,37029774
0,37300386
0,3737091
0,37444074
0,37422
0,37299626
0,36778952
0,36151934
0,35823498
0,3539176
0,35157642
0,35023984
0,34890528
0,35151782
0,35516104
0,35785792
0,3605589
0,36325538
0,36489578
0,36655034
0,3672062
0,36486044
0,36144638
0,3580705
0,35472442
0,35435766
0,3530363
0,35177374
0,353522
0,35529628
0,3591344
0,36196228
0,365784
0,36958672
0,37335124
0,37411772
0,37188678
0,36865984
0,36740134
0,36508626
0,36378672
0,35749848
0,3531447
0,35183946
0,35248276
0,3550989
0,35568484
0,36027144
0,36680486
0,37132866
0,37386734
0,3733931
0,37485606
0,37632812
0,3737462
0,36713178
0,35948602
0,35183222
0,34917008
0,3445641
0,33796386
0,33335828
0,3297687
0,33019406
0,334642
0,33407632
0,33750752
0,34398618
0,35145768
0,35392286
0,35241418
0,35191952
0,3534095
0,3539521
0,34952286
0,34107458
0,33459164
0,33514852
0,33474366
0,33436582
0,33298472
0,33557314
0,34411226
0,34963674
0,35319226
0,35577858
0,36032706
0,36591966
0,36550908
0,36014962
0,35272434
0,34727668
0,34484532
0,3394339
0,33806324
0,33470788
0,33530594
0,33988584
0,34347546
0,34909832
0,35175686
0,35542564
0,35806426
0,35773326
0,35447454
0,35118516
0,34689364
0,34364188
0,33941516
0,3342348
0,33199738
0,33179788
0,33457378
0,33733274
0,34008548
0,34482112
0,34857684
0,35140162
0,35220656
0,35103284
0,34980484
0,34754256
0,34424276
0,33788636
0,33252774
0,32811856
0,32673008
0,32536852
0,3259879
0,32657942
0,32820166
0,3327699
0,3373319
0,34296468
0,34663114
0,34929178
0,35196724
0,35159662
0,35327404
0,34899936
0,34572288
0,34548026
0,34425722
0,3449964
0,34272734
0,34339936
0,34805582
0,35375384
0,3594764
0,36118224
0,36484512
0,37045596
0,37408126
0,37675544
0,37340254
0,36906388
0,36673126
0,36343614
0,36009222
0,35073898
0,34638168
0,34599272
0,34762692
0,34720784
0,34681142
0,3494148
0,35802878
0,36563696
0,36821946
0,3708557
0,37048098
0,37312062
0,37178182
0,3674433
0,36015698
0,35486784
0,3535708
0,35224724
0,34890946
0,34754744
0,34917022
0,35678804
0,36136984
0,36490464
0,36741944
0,37194952
0,3744137
0,37586122
0,37033052
0,36481068
0,36231782
0,35685528
0,35239016
0,34692038
0,34750774
0,35109308
0,35661786
0,36113536
0,36567802
0,3732108
0,38176164
0,38827188
0,38884082
0,3883919
0,3879531
0,38752158
0,38312106
0,37671408
0,3683337
0,36595836
0,36456406
0,36219116
0,36078602
0,36242144
0,36709102
0,37470856
0,38034098
0,38293418
0,38150048
0,38308526
0,38365354
0,3812796
0,3729409
0,3665629
0,361197
0,35879832
0,35543168
0,3520815
0,35371544
0,35927204
0,36782682
0,37637992
0,3849157
0,39446294
0,40499634
0,41460648
0,42114946
0,42371142
0,42729804
0,43186366
0,4344217
0,43801592
0,43859488
0,44315056
0,4507372
0,45834974
0,46890478
0,47945816
0,49199152
0,50555602
0,51710258
0,5286556
0,53917902
0,54467454
0,55017544
0,55462248
0,55608504
0,5575593
0,56200858
0,56444116
0,56887322
0,57630254
0,58176398
0,59129966
0,60579062
0,61929272
0,6348095
0,6502962
0,66277502
0,67722128
0,68865
0,70006362
0,70649396
0,71198544
0,71552576
0,71807778
0,72262054
0,72614056
0,731698
0,74030652
0,7489486
0,75757114
0,7682112
0,77888636
0,7895392
0,7961815
0,79979744
0,79838166
0,79496142
0,78853046
0,78005068
0,7685559
0,75502508
0,74449668
0,73598734
0,7275506
0,72007152
0,71558872
0,712151
0,71067184
0,70724168
0,69781778
0,6853661
0,67389166
0,66034736
0,64275408
0,62121492
0,5987151
0,57924164
0,56073772
0,5462074
0,52766914
0,5131254
0,50260764
0,49310656
0,4835689
0,47306398
0,46162278
0,45325164
0,44490476
0,43459838
0,42128484
0,4079859
0,3956971
0,38545588
0,37722412
0,36395866
0,356698
0,35340486
0,35212774
0,35286526
0,34961568
0,34939332
0,3522174
0,35404666
0,35285498
0,34766508
0,34446434
0,34425132
0,3390549
0,33190822
0,32671248
0,32552524
0,32637798
0,32722184
0,3260716
0,32998146
0,3338878
0,34073638
0,34565928
0,34961326
0,35358308
0,35853204
0,35949496
0,35846466
0,3504507
0,34345938
0,33651758
0,32553442
0,31358372
0,2986369
0,28975108
0,28391064
0,27806682
0,2742004
0,27230936
0,27639138
0,28647514
0,29759218
0,30866608
0,31968518
0,33470748
0,36069032
0,38770604
0,41675202
0,45076798
0,49981862
0,56286388
0,62992012
0,70699762
0,79710578
0,90223454
1,01741956
1,13757562
1,26671112
1,40086096
1,53903944
1,68118878
1,82532232
1,9694156
2,11246124
2,2535664
2,3946785
2,53073668
2,66282394
2,78894532
2,90505996
3,01123172
3,10540836
3,18459694
3,24081444
3,2670307
3,27523188
3,2583842
3,20758794
3,12880992
3,02703714
2,90724572
2,76941006
2,61662058
2,45586524
2,28906884
2,12025942
1,95142902
1,78159318
1,618754
1,46188062
1,31100976
1,16512004
1,02615634
0,89622004
0,7762826
0,66536168
0,56442904
0,4744488
0,39651662
0,3286075
0,2706282
0,2236724
0,18576526
0,15489228
0,13401216
0,11813698
0,10921522
0,10029536
0,09537288
0,09543052
0,09750558
0,10157566
0,09964426
0,10272124
0,10882416
0,1169698
0,12708684
0,13525394
0,14835474
0,16745416
0,18653456
0,20364274
0,22173134
0,24081894
0,26190654
0,28002024
0,2921307
0,30323846
0,31339006
0,32458864
0,3327845
0,33400606
0,33225274
0,3344589
0,33867178
0,34282796
0,34600906
0,35021386
0,3564087
0,36958432
0,37778206
0,38295146
0,38707668
0,3911761
0,39427186
0,39336944
0,38747242
0,381549
0,38062436
0,37866206
0,3776745
0,3736846
0,37670128
0,38474442
0,39477246
0,40482208
0,41285518
0,42292658
0,43395076
0,44302132
0,44613258
0,4472975
0,45044736
0,45064732
0,4488648
0,4480199
0,44815748
0,45026082
0,45538308
0,46149456
0,46963088
0,4798208
0,49307488
0,5043273
0,51154806
0,5187294
0,5209404
0,5231175
0,52532848
0,52159694
0,51787852
0,51515612
0,5154014
0,51967026
0,52396264
0,52824988
0,53651206
0,54782234
0,56015052
0,57153848
0,57987508
0,58918096
0,59653698
0,6018503
0,60219226
0,60057992
0,59997978
0,59940056
0,59980536
0,59925756
0,59969212
0,60309118
0,6104946
0,61790748
0,6263007
0,63367052
0,64199898
0,65135076
0,66070468
0,66800944
0,6733402
0,67571454
0,67906876
0,68245212
0,6868721
0,68925892
0,69267658
0,69810078
0,70648608
0,71483078
0,72317714
0,732506
0,74484406
0,75720678
0,7675763
0,7739758
0,78233756
0,78970674
0,79708134
0,80147474
0,80191898
0,79941374
0,79886892
0,80132482
0,80576808
0,80616562
0,8116035
0,82201356
0,83245452
0,84288276
0,85329266
0,86271396
0,87415486
0,88358706
0,88909022
0,89257034
0,89598476
0,90144242
0,90587686
0,91027366
0,9146155
0,92192098
0,93527836
0,94968472
0,96205332
0,97737794
0,99475874
1,01311162
1,02848072
1,03885846
1,0492385
1,06064178
1,07000212
1,07436704
1,07678618
1,08316758
1,09454848
1,10393216
1,11436004
1,12578572
1,14117532
1,1606306
1,1781096
1,19358762
1,20604224
1,22053894
1,23710544
1,24763922
1,25418154
1,2567032
1,2622194
1,26972828
1,27628576
1,28184128
1,28644378
1,29502424
1,30859206
1,32017298
1,3317674
1,34040678
1,35005734
1,35967512
1,36630954
1,36891492
1,37049096
1,37204084
1,37353416
1,37503244
1,37246946
1,3729253
1,376417
1,38086622
1,38531262
1,38977072
1,39720134
1,40365112
1,41107282
1,41554216
1,41904878
1,42154498
1,42103924
1,41956656
1,41504524
1,41052924
1,40500366
1,39946222
1,39294086
1,38646412
1,38304894
1,3776556
1,37526446
1,36993572
1,36665
1,3614092
1,355153
1,34686356
1,33562898
1,3244449
1,31021872
1,29192554
1,27160642
1,24923548
1,22679448
1,20434534
1,1829096
1,16346872
1,14400324
1,12757606
1,11007368
1,0955612
1,0810583
1,0635657
1,04712074
1,0236748
1,00219146
0,97870068
0,95421804
0,93077926
0,90336312
0,87988992
0,85938512
0,84191094
0,82537808
0,80983498
0,79737028
0,78791948
0,77946586
0,76604124
0,75059274
0,73413592
0,71664634
0,69812264
0,67559674
0,64905366
0,6244991
0,60588102
0,58624318
0,56655032
0,5488464
0,53613994
0,52840144
0,52168332
0,51201898
0,50333208
0,49763752
0,49095826
0,48330484
0,46968588
0,4570709
0,4465191
0,43596716
0,4264475
0,41694086
0,40739968
0,4049196
0,40339898
0,40388172
0,40337352
0,4049259
0,4084457
0,41097544
0,41148408
0,4080267
0,40550256
0,4040142
0,40050484
0,39399822
0,38548834
0,38096978
0,37841452
0,3758244
0,37522102
0,37365256
0,37709224
0,38256776
0,38704976
0,39051642
0,39194998
0,39532688
0,399688
0,40004468
0,39646658
0,39390122
0,39230368
0,39274848
0,3912249
0,38766724
0,38711842
0,38959644
0,39307378
0,39656944
0,40106544
0,40758434
0,41513888
0,42470274
0,42926742
0,43285866
0,43446352
0,43704708
0,4356327
0,4301957
0,42269732
0,41713996
0,41361504
0,4111013
0,40857604
0,40702858
0,40845626
0,4148614
0,42128896
0,42667162
0,4300639
0,4334818
0,43589394
0,43632992
0,43477238
0,43023756
0,42576026
0,42324298
0,42074938
0,42118996
0,41966202
0,42115266
0,42761438
0,43403502
0,44248894
0,44790808
0,45232464
0,45966722
0,46498972
0,469311
0,46767162
0,46602006
0,46733876
0,46671392
0,46514056
0,46158774
0,46297856
0,46838414
0,47481382
0,47723422
0,48160342
0,48996458
0,4993575
0,50571672
0,5070351
0,50729854
0,50752472
0,50871394
0,50793632
0,5031283
0,4993397
0,49756506
0,49774554
0,49797246
0,49514106
0,4962499
0,50034126
0,50745838
0,5106317
0,50875164
0,50884342
0,5099363
0,51197774
0,50899336
0,50202176
0,4940546
0,49006798
0,48607232
0,48114586
0,4752004
0,47122208
0,47326926
0,47631616
0,4793243
0,48132858
0,4842718
0,49021272
0,49518978
0,49416356
0,49017246
0,48619786
0,4852558
0,48235156
0,47850256
0,46764142
0,46184392
0,46106332
0,45930758
0,4585735
0,45483636
0,45715066
0,46346094
0,46977054
0,47505632
0,4763475
0,47968248
0,48401508
0,48441782
0,4798006
0,4752018
0,47162326
0,47003202
0,4683814
0,46470684
0,46307592
0,46548424
0,47391262
0,4803453
0,48681732
0,49324586
0,50072094
0,50817166
0,51159772
0,51094986
0,50933118
0,50967398
0,5060394
0,50043334
0,49584272
0,49420554
0,49654008
0,49784422
0,50018598
0,50255444
0,50989212
0,51719732
0,52148648
0,5238239
0,52416978
0,525525
0,52590302
0,5232908
0,51968114
0,51607566
0,51350728
0,51494488
0,516377
0,52182302
0,52825616
0,53575548
0,54625544
0,55677524
0,56627444
0,57177922
0,5772687
0,579716
0,57818834
0,575689
0,570195
0,563737
0,5583312
0,55289994
0,54651014
0,5441597
0,54282448
0,54646616
0,55007934
0,55472218
0,55933376
0,56396418
0,57054968
0,57614004
0,5807084
0,58022484
0,5807445
0,58126038
0,5827783
0,58429882
0,58675622
0,59118552
0,59658918
0,60701008
0,61549796
0,62697346
0,64050586
0,65298952
0,66548524
0,67599198
0,6834667
0,69195014
0,69839508
0,70083222
0,7022955
0,70380696
0,7043094
0,70578666
0,7122898
0,71777568
0,72628354
0,73881298
0,75239854
0,7690265
0,78469798
0,8013923
0,81802784
0,8326466
0,8462558
0,8548517
0,86445958
0,87201214
0,8766162
0,88522664
0,88783822
0,89547666
0,90612914
0,91883172
0,9325927
0,9463291
0,9601051
0,97691534
0,98977454
1,00159326
1,00839948
1,0151665
1,01890172
1,020672
1,01850642
1,01538444
1,01229086
1,01215466
1,01202116
1,0099226
1,00786378
1,0078141
1,00975178
1,01072312
1,00374144
0,99679022
0,99185146
0,98587444
0,97391154
0,9559764
0,9400665
0,9261401
0,91319524
0,89826112
0,88327716
0,8712748
0,86622786
0,86216738
0,85914974
0,8530697
0,84803246
0,84502786
0,83999712
0,8299806
0,81598568
0,80402142
0,79505712
0,78310066
0,76817224
0,75328738
0,74342058
0,73659146
0,73077236
0,72597998
0,7191504
0,7152639
0,71335696
0,70941896
0,70452694
0,69765982
0,69075636
0,68588952
0,67705346
0,66721156
0,65836178
0,6544745
0,6515512
0,64758722
0,64459782
0,6446197
0,64759808
0,65459006
0,65857756
0,6635998
0,67066658
0,6757586
0,67984276
0,68192054
0,681983
0,68005422
0,67917622
0,67731268
0,67450352
0,671639
0,67079662
0,6710209
0,67022976
0,66943866
0,66871536
0,6699828
0,67223086
0,67447674
0,67275016
0,67104806
0,66737338
0,66373348
0,66014912
0,65759872
0,65410248
0,65361578
0,6601154
0,66963158
0,68314362
0,7056429
0,7371446
0,77963282
0,82613376
0,88162286
0,94316656
1,01370648
1,09327618
1,17883188
1,27638084
1,3749205
1,48043002
1,5979425
1,72745268
1,8649537
2,00441818
2,15087862
2,30633648
2,46585678
2,62239602
2,77595876
2,92548792
3,072033
3,20858704
3,33114742
3,43970362
3,53722162
3,62577588
3,69337728
3,73397468
3,75559444
3,76021608
3,7438378
3,69746358
3,62708054
3,5386828
3,4342545
3,3138005
3,17528842
3,02378228
2,86430388
2,70075824
2,53226532
2,35973704
2,18720296
2,01969438
1,86314714
1,71364766
1,57009654
1,4345747
1,31105438
1,20156044
1,10302412
1,01146668
0,9278503
0,85523844
0,79368236
0,73812378
0,68659906
0,64006042
0,60354472
0,57600416
0,55150468
0,5319866
0,51645926
0,51295284
0,51745004
0,52394708
0,53349068
0,54501344
0,5605133
0,57999914
0,59753824
0,6101071
0,62267748
0,63621938
0,64673358
0,65420994
0,65766136
0,66410318
0,67051316
0,6799488
0,68846118
0,69794666
0,71138944
0,72680324
0,7442791
0,7617819
0,77633784
0,78986798
0,80039428
0,81093534
0,81648096
0,81803264
0,81959332
0,82018762
0,81981578
0,81843468
0,81704448
0,82167492
0,82633658
0,8329474
0,84054156
0,84908786
0,8586411
0,86814254
0,87259892
0,87604794
0,8765402
0,87496174
0,87332764
0,86764418
0,86301032
0,85842744
0,8568249
0,8572436
0,85872278
0,86619938
0,8726747
0,88319484
0,8946997
0,9041968
0,91366436
0,9211816
0,92671998
0,93024858
0,93272702
0,9332247
0,93273922
0,93422886
0,9387142
0,94419396
0,95171418
0,9602621
0,9708089
0,98633924
1,00092202
1,01346308
1,0229872
1,03145914
1,03996986
1,04452022
1,04808428
1,04663042
1,04617068
1,04768974
1,05020474
1,0507158
1,05221892
1,05875354
1,0672675
1,07881326
1,08440252
1,0929632
1,10358696
1,11116978
1,12071484
1,12423724
1,12770342
1,13020178
1,13173818
1,13528906
1,13483408
1,13531966
1,13682136
1,14229878
1,14785118
1,15243152
1,15902904
1,16857328
1,18115438
1,19074004
1,19931544
1,20695978
1,21862448
1,23026538
1,2369019
1,24050442
1,2430785
1,24963058
1,25316414
1,25773968
1,2603209
1,26695866
1,27956792
1,2932095
1,30583062
1,31747066
1,33011198
1,34779432
1,35949796
1,3692088
1,37493262
1,38164804
1,39134752
1,39508594
1,39782482
1,40256984
1,41129922
1,42504982
1,43478936
1,44656132
1,45828862
1,47599896
1,49469634
1,50841898
1,5191312
1,52990942
1,5427055
1,5535093
1,56026138
1,5629594
1,56863312
1,57628088
1,583994
1,59164804
1,6003049
1,6119773
1,63066346
1,64630392
1,6599142
1,67251306
1,68610804
1,70077248
1,71045946
1,71816344
1,723854
1,73057248
1,73827452
1,74699242
1,75471682
1,76243572
1,77310748
1,78875592
1,80339518
1,82195864
1,83653892
1,8520873
1,86663608
1,87719606
1,88875218
1,89434666
1,89998576
1,90459074
1,90818898
1,91078458
1,9153899
1,92000022
1,92858514
1,9382006
1,94683518
1,95942314
1,97101768
1,9826292
1,99323168
2,00376632
2,01130952
2,01781146
2,0213049
2,02377688
2,02424066
2,02367538
2,02305116
2,02346186
2,02284696
2,02324764
2,02464122
2,02900872
2,03341868
2,03779042
2,0381172
2,03841712
2,03872316
2,03604212
2,03430876
2,0245595
2,01280524
2,00100406
1,98625392
1,96745696
1,94763732
1,92881854
1,91495952
1,90108044
1,88824984
1,87141624
1,859556
1,85264482
1,84372182
1,8308363
1,81397286
1,7950507
1,78014454
1,76123644
1,74133166
1,71646596
1,69260914
1,67380384
1,65394856
1,63309494
1,6092953
1,59148778
1,57969636
1,56592844
1,5481353
1,52830524
1,50848644
1,48968426
1,4679051
1,4401208
1,41231336
1,3854923
1,36165356
1,3378123
1,31500634
1,29415578
1,2782877
1,2684364
1,2585524
1,24962998
1,2417354
1,23785116
1,23198496
1,22212266
1,2092564
1,19640212
1,18354152
1,16870842
1,152879
1,13704018
1,12518732
1,11627866
1,10734972
1,10242876
1,09746692
1,09746584
1,09644386
1,09442906
1,09044144
1,08643676
1,08146502
1,0774452
1,07143916
1,06242968
1,05441208
1,04943736
1,04542738
1,04140068
1,0393747
1,03832476
1,04028842
1,04425854
1,04821018
1,05314748
1,05714284
1,0621021
1,06710794
1,0670821
1,06706218
1,0660107
1,06394684
1,0638895
1,06083726
1,05775882
1,05673858
1,05669998
1,06066224
1,06559518
1,07056504
1,07653592
1,0835744
1,09357916
1,10264968
1,1077354
1,11182822
1,11395282
1,11707632
1,11615434
1,1112456
1,1063492
1,10344458
1,10647684
1,1095391
1,10960736
1,11473766
1,12482532
1,13895018
1,15111578
1,15928786
1,16447242
1,17165784
1,17684106
1,17898878
1,1751382
1,1712776
1,16936554
1,16744
1,1655184
1,16359964
1,16669662
1,1727524
1,18079494
1,18685398
1,19288488
1,20086406
1,20986224
1,21687056
1,2219122
1,21996862
1,2179928
1,21998464
1,2179773
1,21600238
1,21210012
1,21017058
1,21428372
1,21640976
1,2185178
1,22363352
1,22976804
1,23989122
1,2449507
1,24602112
1,24702798
1,24898282
1,25193858
1,24991542
1,24586436
1,24480664
1,24581554
1,24885522
1,25294436
1,25604232
1,2641556
1,27723072
1,28825268
1,29625076
1,30321546
1,30922298
1,315253
1,31921732
1,31919824
1,31518392
1,31216326
1,31214586
1,31013696
1,30818066
1,30624052
1,30931328
1,3163974
1,32353134
1,32963088
1,33470534
1,34177866
1,34885328
1,35293336
1,3530085
1,35214028
1,35230522
1,35240982
1,3484885
1,34253818
1,33558984
1,3306563
1,32977672
1,3279332
1,32808308
1,3282117
1,33136214
1,33955502
1,34777822
1,3589759
1,36717196
1,37436672
1,38155898
1,38574194
1,38591208
1,38201262
1,3771267
1,3722842
1,36838554
1,36549196
1,36161046
1,36072404
1,3658493
1,37196988
1,37811748
1,38327536
1,38840192
1,3955057
1,40063852
1,4027225
1,40078598
1,39780112
1,39381116
1,38877598
1,3817811
1,37876642
1,37776524
1,37875788
1,38373986
1,38776318
1,39578
1,40780234
1,4188558
1,42787562
1,43187324
1,43389244
1,43490032
1,4339379
1,43003206
1,42105286
1,41409392
1,4111287
1,40917278
1,40721106
1,40521032
1,40918168
1,41720818
1,42622808
1,43418208
1,43816168
1,44216508
1,44716178
1,4511453
1,45410694
1,44808536
1,44407106
1,44606068
1,44802158
1,45001184
1,4509466
1,45789044
1,47079522
1,48376306
1,49466678
1,50450708
1,51734406
1,53418834
1,54797648
1,55573566
1,5615181
1,56725982
1,57500034
1,5807645
1,58455818
1,58735972
1,59211864
1,60187788
1,6096358
1,6174145
1,62723734
1,64303306
1,658839
1,6736622
1,68347902
1,6962512
1,71105792
1,72486814
1,7336708
1,74052922
1,74939202
1,76128306
1,77117422
1,78005284
1,78797702
1,79888248
1,81174882
1,82266548
1,83456046
1,84744908
1,86227854
1,87709214
1,88689846
1,89565346
1,90138932
1,90611136
1,9098597
1,9076186
1,90633496
1,90103894
1,89871066
1,89634222
1,89596186
1,89952016
1,89802158
1,90050076
1,9029915
1,90349062
1,90102154
1,8965119
1,88796264
1,8774549
1,8619465
1,84046486
1,81999752
1,79959882
1,78324294
1,7668423
1,75141524
1,73703208
1,72661672
1,71927516
1,71392578
1,70554324
1,69512878
1,68467982
1,67418656
1,66172936
1,64828204
1,63284664
1,61938342
1,6058974
1,59441408
1,58292992
1,57442068
1,56891764
1,5674442
1,56894318
1,56840268
1,56683912
1,5692472
1,56962028
1,56795566
1,5623086
1,5556318
1,54996174
1,5442658
1,53759834
1,52895424
1,5222732
1,52066426
1,52006804
1,52144712
1,52285476
1,52726286
1,53561416
1,5399863
1,54133898
1,53969358
1,53904538
1,54034326
1,53763556
1,52988804
1,5221177
1,5173515
1,51458846
1,51188352
1,50817032
1,50450362
1,5048552
1,51024602
1,51156852
1,5088821
1,50511946
1,50436708
1,5016095
1,4958889
1,4871749
1,47845688
1,47278248
1,46710986
1,46148294
1,45486256
1,45528314
1,46471168
1,47610972
1,49246552
1,51483236
1,55022234
1,59464388
1,64308748
1,7025212
1,7659681
1,84040164
1,91878698
2,00514638
2,10054842
2,20192354
2,31126696
2,43068018
2,56206566
2,69646456
2,83885104
2,98722896
3,14362918
3,30205374
3,45840374
3,61171476
3,7590527
3,90137974
4,0346804
4,15399178
4,2582823
4,3495545
4,42981512
4,48508626
4,52333056
4,53959032
4,53679138
4,5090192
4,45426054
4,3845253
4,29379872
4,18412432
4,05645066
3,91378592
3,76312718
3,59943686
3,42968164
3,26097836
3,09024474
2,9215341
2,75578694
2,59703778
2,45022852
2,3124162
2,182606
2,0617956
1,95198488
1,853176
1,76332184
1,6775459
1,5987471
1,5309232
1,47004968
1,41419366
1,36134146
1,31842106
1,2865093
1,26059386
1,2407261
1,22482152
1,21990912
1,2250399
1,23322284
1,24345458
1,2517068
1,2650176
1,28133174
1,29667232
1,3060168
1,31134922
1,318646
1,32995382
1,33823644
1,34352846
1,34686638
1,3551863
1,37053702
1,38392252
1,39731628
1,4056803
1,42001556
1,4383496
1,45167156
1,4629868
1,46532072
1,47064406
1,4759796
1,4793567
1,47672918
1,47313614
1,47349834
1,47687884
1,48029082
1,4816812
1,48607162
1,49447786
1,5089277
1,5203962
1,53084462
1,53928496
1,5477742
1,55624106
1,56171862
1,56113776
1,55949794
1,55780336
1,55711472
1,5564261
1,55576008
1,56008538
1,56735426
1,57561758
1,58588532
1,59513282
1,60740284
1,6186804
1,62599672
1,6312551
1,63150152
1,63267694
1,6298254
1,62496896
1,61910152
1,61326416
1,61145688
1,6126833
1,6149121
1,61912744
1,62734404
1,63956668
1,65375006
1,66596352
1,67616644
1,68537238
1,69257902
1,69980004
1,6999743
1,70115166
1,69832984
1,69751748
1,69764218
1,69778554
1,70100704
1,7032813
1,70855626
1,71681724
1,72708272
1,73736968
1,74364974
1,7508617
1,7590562
1,7662485
1,77143108
1,77261032
1,77379946
1,77901906
1,7852275
1,78945644
1,79468612
1,80286574
1,8150763
1,82824742
1,84036394
1,85045852
1,8605744
1,87172622
1,88086584
1,88503566
1,88716618
1,89026398
1,89342178
1,89653376
1,8976046
1,8986646
1,9046911
1,91170876
1,91971416
1,9256989
1,93272246
1,94368476
1,95368586
1,9646803
1,97269736
1,97972058
1,98878834
1,99690654
2,00000822
2,00006754
2,00212802
2,00522022
2,00734626
2,00846996
2,00759992
2,01172336
2,01879972
2,02690884
2,0360106
2,04512632
2,05623002
2,07030928
2,08143148
2,09050272
2,1006055
2,11069308
2,12174198
2,1257453
2,13079078
2,13989916
2,14993452
2,16195538
2,17292698
2,1879279
2,2029465
2,2179843
2,23701258
2,2520353
2,26508242
2,27909044
2,29011272
2,29915936
2,3062171
2,3113438
2,3174445
2,32354572
2,32964288
2,33770302
2,3457789
2,3578558
2,37391538
2,38900428
2,40503654
2,4210012
2,43593402
2,45088912
2,46185262
2,46987124
2,47591584
2,47797778
2,48002528
2,4810179
2,48203858
2,4840648
2,4850746
2,49004118
2,49596722
2,50287138
2,50982444
2,51580422
2,52379052
2,52879258
2,5347831
2,53581686
2,53678978
2,5367642
2,53773548
2,53965704
2,5376012
2,53852218
2,54141676
2,5443177
2,54526668
2,5452302
2,54715766
2,54808746
2,54700712
2,5399061
2,5298238
2,51971324
2,50854108
2,49435124
2,47515274
2,4529995
2,4318111
2,41458768
2,39633312
2,37806772
2,35979656
2,34455102
2,33235484
2,32019922
2,30403436
2,28989186
2,27877702
2,26467076
2,24755368
2,22544676
2,2033562
2,18121232
2,15804654
2,13091682
2,09979216
2,07170604
2,04762372
2,02552322
2,00443038
1,9823055
1,96517342
1,95105036
1,93685622
1,91967048
1,90148682
1,88734504
1,8732753
1,85427174
1,83220432
1,80912292
1,78902162
1,76996608
1,74889304
1,72879296
1,70671334
1,68863726
1,67353536
1,65946994
1,64641456
1,63138266
1,6163823
1,6033793
1,58836266
1,5702891
1,55319912
1,53612042
1,52103642
1,50495076
1,48988364
1,47877704
1,47069234
1,46562792
1,46057688
1,45651204
1,4554242
1,45234738
1,45022688
1,44512868
1,43796314
1,43181974
1,42568356
1,42048176
1,41334022
1,40823382
1,40617632
1,40509686
1,40400098
1,40587648
1,4057518
1,40959596
1,41441002
1,41621908
1,41804734
1,41688342
1,41571766
1,41453644
1,4124024
1,40731956
1,39925452
1,39119186
1,38710058
1,38299428
1,38089028
1,378799
1,38070012
1,38764496
1,3975485
1,40644774
1,4133721
1,42133064
1,43128616
1,44024952
1,44324776
1,44123544
1,44118954
1,44308912
1,44494094
1,44479076
1,44059332
1,44338514
1,4511546
1,46088048
1,46857
1,47426496
1,47996744
1,48973004
1,49547136
1,4961642
1,49489556
1,49361874
1,4933258
1,48906782
1,48086608
1,46766926
1,45847904
1,45426242
1,4490568
1,44183946
1,43760298
1,437367
1,44316036
1,4479682
1,44973184
1,4515031
1,45524122
1,45697512
1,45374274
1,44650706
1,4413047
1,4371481
1,43503378
1,43294888
1,4288797
1,43176312
1,43867784
1,44664072
1,45563916
1,462578
1,47351166
1,4843982
1,4902703
1,4931402
1,49298076
1,49382696
1,4926688
1,48746536
1,48124952
1,47203992
1,46883298
1,46766756
1,46649036
1,46627858
1,46509204
1,46892518
1,47381102
1,47769704
1,47863664
1,47960306
1,48155536
1,48444642
1,4813802
1,4773513
1,47333698
1,47134502
1,46932574
1,4643674
1,45838778
1,45537802
1,45534556
1,45728092
1,45819854
1,45815142
1,4591239
1,4610849
1,4639949
1,46491298
1,4618847
1,45991656
1,45688788
1,45288564
1,44684174
1,4407866
1,43770272
1,43655476
1,43644036
1,43933888
1,44326934
1,44716698
1,45205898
1,45798288
1,46090214
1,46278282
1,46164096
1,45847614
1,4552852
1,45209602
1,44891762
1,44675356
1,44559022
1,44542186
1,44527776
1,44711808
1,4489157
1,45269694
1,45449396
1,45629528
1,45615708
1,45706818
1,45601668
1,45397648
1,45092368
1,44385316
1,43673054
1,429669
1,42261468
1,4175204
1,41241912
1,40929946
1,41012352
1,4149461
1,41979706
1,42760688
1,4344013
1,44417422
1,45289444
1,45761478
1,46033564
1,46102416
1,4637397
1,46246076
1,45820262
1,45400112
1,45476204
1,4575083
1,4601876
1,46491572
1,47264708
1,48639834
1,49915834
1,50992862
1,51565206
1,52136648
1,52902296
1,5356764
1,53831536
1,53694728
1,5375457
1,54419154
1,55376408
1,56336184
1,57296362
1,5865019
1,60401238
1,6225919
1,63719568
1,64980444
1,659392
1,67202038
1,67860026
1,68212392
1,67959808
1,6780557
1,67952258
1,68199678
1,68346818
1,68393338
1,69242956
1,70488142
1,71934006
1,73379276
1,74824328
1,76267686
1,7771197
1,78855558
1,79395028
1,79930494
1,7996383
1,79800916
1,79138292
1,78276946
1,77414722
1,76649754
1,76083522
1,75216814
1,74556546
1,73894706
1,73335266
1,72772854
1,72206402
1,71437558
1,70668902
1,69603956
1,68337704
1,6677081
1,65000838
1,6322588
1,61446138
1,59566122
1,5758635
1,55706868
1,5412645
1,52647772
1,51571248
1,50600334
1,49830806
1,4915845
1,48488032
1,47711026
1,46840784
1,45771846
1,44703578
1,43435158
1,41768942
1,40006786
1,38239992
1,36874634
1,35813012
1,34951468
1,34389772
1,33724652
1,33559966
1,33595946
1,3393814
1,3417868
1,3411903
1,33960156
1,33903844
1,3374753
1,33096584
1,32141348
1,31385632
1,31033856
1,3068383
1,3013944
1,29596716
1,29652672
1,30113324
1,30575378
1,30836976
1,30704288
1,30669828
1,3093147
1,30698174
1,30065656
1,29032414
1,27899614
1,26964664
1,26026448
1,2478238
1,23940496
1,23198762
1,22851842
1,22507118
1,2186203
1,21514462
1,21569564
1,21726392
1,21688732
1,2145011
1,21506216
1,21663678
1,22021716
1,2247944
1,23237648
1,24390528
1,2624404
1,28699646
1,31753422
1,35602068
1,40448742
1,4669278
1,5363958
1,61389176
1,69533962
1,78676222
1,8901899
1,99558794
2,1060242
2,2224264
2,35084014
2,4862437
2,62366338
2,76508572
2,91250898
3,06291826
3,21333736
3,35972002
3,5001334
3,63555538
3,76493804
3,8852946
3,98667282
4,0720539
4,14736992
4,1986784
4,22502632
4,22433692
4,20462264
4,16185434
4,09413676
4,00548064
3,89778612
3,77405786
3,639365
3,49566348
3,34496152
3,18831882
3,02365892
2,86100504
2,70029248
2,53758882
2,37693086
2,2192868
2,06861708
1,92597848
1,79231376
1,670624
1,5579211
1,45727706
1,36864504
1,29296534
1,22922048
1,1714797
1,12172556
1,0800113
1,04529908
1,0145773
0,98579206
0,96104834
0,94332092
0,929549
0,92077732
0,91306366
0,91133168
0,9156308
0,92393356
0,93725938
0,94753562
0,96177354
0,97797332
0,99519014
1,0073871
1,01554748
1,02272584
1,0318549
1,03696834
1,0391343
1,04130342
1,04450938
1,05173026
1,0589999
1,06631598
1,07365744
1,0830176
1,09637166
1,10679552
1,11323514
1,11765886
1,12105574
1,12545362
1,12584256
1,12127572
1,11471582
1,11511508
1,1145152
1,11496758
1,11339574
1,11781268
1,1292236
1,14062168
1,14997382
1,15631252
1,16365276
1,17297988
1,17935202
1,18275172
1,17912356
1,17845848
1,17783282
1,17619482
1,17352984
1,169881
1,17125036
1,17560328
1,18092506
1,18524734
1,19059402
1,19892888
1,20827564
1,21559294
1,2188955
1,21925364
1,2215772
1,22387332
1,22314506
1,22044956
1,2157692
1,21303964
1,21331714
1,21259264
1,21282212
1,21398548
1,22018994
1,23044814
1,23967238
1,24791794
1,2581248
1,26831102
1,2774941
1,28166356
1,28387096
1,28412284
1,28145038
1,28076322
1,27806962
1,27833468
1,27956338
1,28277596
1,28799628
1,29619008
1,30539046
1,31762622
1,32989434
1,34016152
1,34943716
1,35467114
1,35786418
1,3611121
1,3643717
1,36661574
1,36483486
1,3660886
1,36733724
1,37260942
1,37986366
1,38614736
1,39344316
1,40471112
1,41600152
1,42337066
1,42677322
1,43012434
1,43453584
1,43598866
1,43546832
1,42990802
1,42634854
1,42880864
1,4323169
1,4388587
1,44343526
1,45098916
1,46351174
1,47699082
1,48942816
1,49887524
1,50932844
1,52181208
1,53229462
1,53674448
1,53819226
1,54065284
1,54511258
1,55157708
1,55404666
1,5585118
1,56602096
1,57956936
1,5931501
1,60570778
1,61930668
1,63397204
1,65065364
1,66330202
1,66995782
1,6776225
1,68733038
1,6950656
1,69981584
1,70252332
1,7082632
1,71695536
1,72568216
1,7353693
1,7440595
1,75768946
1,77438452
1,78813266
1,80186682
1,8146469
1,83043242
1,84519498
1,85697254
1,86678878
1,87367278
1,88354708
1,89437724
1,90216952
1,90993258
1,91471134
1,92451838
1,93430958
1,94405064
1,95579702
1,96547504
1,98109312
1,99375152
2,00446462
2,0131317
2,0197659
2,02736918
2,03197396
2,03463124
2,03229294
2,03191924
2,03456836
2,03817684
2,04081724
2,04350438
2,04818364
2,05382266
2,06248806
2,06819446
2,07189836
2,07360094
2,07236842
2,0700992
2,06584136
2,05958254
2,0503077
2,04208304
2,03589074
2,03068166
2,02444254
2,01922716
2,01701446
2,01584674
2,01564704
2,01039038
2,00311972
1,99587082
1,98565146
1,97344474
1,95617772
1,93495854
1,91273212
1,88951498
1,8662789
1,84297932
1,81969178
1,79937744
1,78106478
1,76375488
1,7474356
1,73008302
1,71476218
1,69543598
1,67810244
1,65482596
1,63051576
1,60621396
1,57992846
1,55366228
1,5233661
1,49709952
1,47288868
1,45263944
1,4324083
1,40917658
1,38990686
1,3736797
1,35751676
1,3383791
1,31931638
1,29925214
1,282184
1,26315122
1,23812938
1,21412384
1,1930788
1,17708038
1,16007526
1,14207218
1,12604744
1,115055
1,10809326
1,10009902
1,09115948
1,08418402
1,0802665
1,07738468
1,0705343
1,06069
1,05088134
1,04309036
1,03528272
1,0234266
1,00857548
0,99670372
0,98877444
0,98181348
0,97486
0,96590902
0,96199152
0,9620824
0,9632285
0,96238114
0,95850408
0,955649
0,95478636
0,95092272
0,94404792
0,93517998
0,92826502
0,92636822
0,92347426
0,9205903
0,91672776
0,92088734
0,92704282
0,93320522
0,94238508
0,94752434
0,95471964
0,96089452
0,96414002
0,96443368
0,96370268
0,95995482
0,95719366
0,95343898
0,948623
0,94682082
0,9450341
0,94729312
0,9495484
0,95378942
0,9590067
0,96422484
0,96941012
0,97153562
0,97165516
0,9718191
0,97098424
0,96816218
0,96341584
0,95871214
0,95299116
0,95130612
0,94864814
0,949037
0,94944578
0,95284238
0,96019956
0,96555204
0,9708771
0,9751856
0,98144752
0,98769252
0,98993154
0,99120222
0,98941178
0,98958692
0,9907992
0,99199272
0,99422316
0,99651524
1,00074166
1,00703954
1,01235588
1,01870978
1,02309258
1,0284902
1,03387
1,03628062
1,03772608
1,03518912
1,0316434
1,03211212
1,0295849
1,02904532
1,02346126
1,01987664
1,02029788
1,02268788
1,02605494
1,02743434
1,03082016
1,0381875
1,04754588
1,0519536
1,05633654
1,06170186
1,06712698
1,06959994
1,06908438
1,06462896
1,06015378
1,0576295
1,05611718
1,05358792
1,05005356
1,0504617
1,05594488
1,06341686
1,06790382
1,07443314
1,07993504
1,08645876
1,09102658
1,09153768
1,08798722
1,0854604
1,08288892
1,07929062
1,0737255
1,07017574
1,06962558
1,07108712
1,07454578
1,07498784
1,07846612
1,083937
1,09038946
1,0918054
1,09222134
1,08865416
1,08815008
1,0866935
1,08125868
1,07480472
1,07033758
1,07287442
1,07439912
1,07591864
1,07743538
1,0829283
1,09242896
1,09898294
1,10152196
1,0990208
1,10155064
1,1040986
1,10064934
1,09624344
1,08687386
1,083493
1,08410998
1,08272586
1,07933104
