0.001
-0.446
-0.444
-0.439
-0.432
-0.423
-0.412
-0.4
-0.388
-0.377
-0.369
-0.364
-0.363
-0.363
-0.363
-0.364
-0.367
-0.372
-0.375
-0.375
-0.373
-0.373
-0.372
-0.372
-0.369
-0.365
-0.361
-0.36
-0.359
-0.358
-0.357
-0.359
-0.364
-0.367
-0.368
-0.37
-0.371
-0.371
-0.368
-0.365
-0.359
-0.356
-0.352
-0.349
-0.346
-0.346
-0.345
-0.348
-0.351
-0.354
-0.354
-0.354
-0.357
-0.357
-0.354
-0.349
-0.342
-0.34
-0.338
-0.336
-0.332
-0.331
-0.332
-0.336
-0.338
-0.34
-0.342
-0.347
-0.35
-0.351
-0.35
-0.348
-0.348
-0.345
-0.338
-0.329
-0.321
-0.317
-0.313
-0.309
-0.305
-0.302
-0.305
-0.308
-0.311
-0.312
-0.314
-0.317
-0.318
-0.316
-0.315
-0.316
-0.317
-0.318
-0.316
-0.318
-0.322
-0.329
-0.336
-0.34
-0.344
-0.35
-0.354
-0.358
-0.356
-0.352
-0.349
-0.344
-0.337
-0.331
-0.326
-0.327
-0.328
-0.329
-0.332
-0.337
-0.348
-0.356
-0.361
-0.366
-0.369
-0.375
-0.378
-0.377
-0.373
-0.372
-0.374
-0.375
-0.374
-0.376
-0.381
-0.392
-0.402
-0.407
-0.411
-0.414
-0.419
-0.42
-0.416
-0.41
-0.406
-0.407
-0.403
-0.399
-0.396
-0.398
-0.402
-0.404
-0.403
-0.403
-0.405
-0.405
-0.402
-0.395
-0.388
-0.382
-0.375
-0.367
-0.357
-0.351
-0.347
-0.342
-0.335
-0.331
-0.328
-0.331
-0.33
-0.328
-0.327
-0.328
-0.331
-0.33
-0.327
-0.324
-0.321
-0.319
-0.313
-0.307
-0.302
-0.301
-0.3
-0.297
-0.294
-0.295
-0.299
-0.301
-0.3
-0.298
-0.296
-0.294
-0.292
-0.289
-0.284
-0.282
-0.278
-0.278
-0.279
-0.281
-0.285
-0.29
-0.298
-0.304
-0.309
-0.312
-0.316
-0.318
-0.316
-0.31
-0.303
-0.295
-0.288
-0.28
-0.271
-0.262
-0.253
-0.245
-0.237
-0.226
-0.213
-0.202
-0.188
-0.173
-0.155
-0.136
-0.12
-0.103
-0.085
-0.07
-0.054
-0.042
-0.031
-0.021
-0.011
0.001
0.013
0.024
0.037
0.053
0.069
0.083
0.098
0.115
0.131
0.144
0.154
0.161
0.168
0.173
0.177
0.173
0.17
0.169
0.167
0.165
0.159
0.157
0.16
0.161
0.158
0.152
0.149
0.148
0.145
0.135
0.125
0.116
0.109
0.1
0.088
0.076
0.066
0.06
0.053
0.043
0.036
0.03
0.028
0.022
0.011
0
-0.009
-0.019
-0.033
-0.051
-0.068
-0.082
-0.093
-0.106
-0.119
-0.129
-0.134
-0.139
-0.144
-0.152
-0.158
-0.161
-0.167
-0.175
-0.187
-0.197
-0.203
-0.212
-0.22
-0.23
-0.235
-0.236
-0.238
-0.236
-0.235
-0.232
-0.228
-0.226
-0.225
-0.229
-0.23
-0.231
-0.234
-0.24
-0.246
-0.247
-0.247
-0.247
-0.25
-0.251
-0.248
-0.248
-0.25
-0.256
-0.261
-0.267
-0.274
-0.285
-0.296
-0.302
-0.306
-0.308
-0.309
-0.303
-0.288
-0.264
-0.236
-0.199
-0.154
-0.102
-0.041
0.03
0.111
0.198
0.293
0.401
0.517
0.642
0.77
0.909
1.059
1.213
1.372
1.532
1.696
1.862
2.023
2.181
2.331
2.472
2.605
2.716
2.812
2.885
2.936
2.958
2.951
2.921
2.864
2.781
2.679
2.559
2.422
2.268
2.103
1.932
1.756
1.578
1.398
1.223
1.053
0.894
0.745
0.603
0.477
0.366
0.27
0.182
0.105
0.041
-0.012
-0.058
-0.102
-0.136
-0.164
-0.186
-0.204
-0.219
-0.227
-0.228
-0.225
-0.218
-0.21
-0.196
-0.178
-0.16
-0.147
-0.135
-0.124
-0.111
-0.102
-0.097
-0.094
-0.09
-0.082
-0.074
-0.066
-0.061
-0.05
-0.035
-0.021
-0.009
0
0.011
0.024
0.033
0.039
0.042
0.047
0.056
0.061
0.063
0.065
0.072
0.082
0.091
0.097
0.103
0.109
0.117
0.12
0.119
0.118
0.118
0.116
0.112
0.106
0.105
0.107
0.111
0.115
0.117
0.126
0.138
0.149
0.16
0.168
0.176
0.185
0.191
0.194
0.195
0.196
0.196
0.195
0.195
0.196
0.203
0.212
0.221
0.23
0.24
0.254
0.268
0.279
0.288
0.294
0.299
0.304
0.307
0.308
0.31
0.316
0.322
0.328
0.335
0.346
0.357
0.371
0.38
0.386
0.392
0.396
0.4
0.402
0.402
0.4
0.4
0.402
0.404
0.408
0.412
0.42
0.428
0.438
0.444
0.451
0.458
0.464
0.468
0.468
0.468
0.47
0.472
0.476
0.48
0.486
0.495
0.505
0.517
0.527
0.538
0.55
0.56
0.569
0.576
0.582
0.587
0.591
0.597
0.601
0.607
0.616
0.626
0.638
0.646
0.657
0.67
0.685
0.699
0.709
0.718
0.729
0.739
0.745
0.751
0.757
0.768
0.777
0.784
0.793
0.803
0.819
0.833
0.846
0.858
0.872
0.888
0.9
0.908
0.915
0.925
0.934
0.941
0.945
0.951
0.961
0.974
0.986
0.998
1.013
1.033
1.053
1.07
1.083
1.096
1.111
1.124
1.133
1.138
1.142
1.152
1.161
1.168
1.175
1.184
1.199
1.213
1.225
1.233
1.242
1.252
1.258
1.26
1.257
1.257
1.258
1.257
1.256
1.255
1.257
1.262
1.264
1.265
1.268
1.269
1.268
1.263
1.254
1.245
1.234
1.221
1.205
1.186
1.169
1.153
1.139
1.123
1.106
1.094
1.081
1.066
1.048
1.026
1.007
0.985
0.958
0.929
0.899
0.87
0.843
0.813
0.782
0.754
0.728
0.705
0.68
0.655
0.629
0.605
0.583
0.558
0.533
0.506
0.48
0.454
0.428
0.406
0.38
0.357
0.337
0.32
0.305
0.289
0.274
0.264
0.253
0.241
0.225
0.21
0.198
0.181
0.161
0.14
0.119
0.102
0.087
0.071
0.055
0.042
0.035
0.031
0.025
0.018
0.01
0.003
-0.004
-0.016
-0.027
-0.038
-0.047
-0.054
-0.062
-0.067
-0.068
-0.065
-0.061
-0.058
-0.054
-0.048
-0.043
-0.041
-0.043
-0.047
-0.047
-0.05
-0.056
-0.064
-0.07
-0.069
-0.071
-0.07
-0.069
-0.063
-0.055
-0.05
-0.046
-0.047
-0.046
-0.045
-0.05
-0.057
-0.067
-0.071
-0.073
-0.077
-0.082
-0.085
-0.082
-0.073
-0.068
-0.068
-0.067
-0.063
-0.059
-0.059
-0.062
-0.067
-0.069
-0.07
-0.072
-0.076
-0.077
-0.071
-0.066
-0.061
-0.057
-0.049
-0.039
-0.032
-0.028
-0.029
-0.029
-0.028
-0.031
-0.035
-0.04
-0.044
-0.047
-0.05
-0.051
-0.052
-0.05
-0.045
-0.04
-0.034
-0.028
-0.022
-0.017
-0.015
-0.015
-0.017
-0.019
-0.022
-0.026
-0.029
-0.032
-0.033
-0.031
-0.029
-0.024
-0.02
-0.015
-0.009
-0.009
-0.011
-0.013
-0.015
-0.017
-0.022
-0.026
-0.03
-0.031
-0.031
-0.03
-0.027
-0.022
-0.016
-0.01
-0.005
-0.001
0.001
0.003
0.001
-0.002
-0.008
-0.015
-0.019
-0.024
-0.026
-0.029
-0.029
-0.026
-0.02
-0.014
-0.013
-0.011
-0.007
-0.005
-0.005
-0.008
-0.011
-0.013
-0.014
-0.015
-0.018
-0.017
-0.012
-0.006
0
0.003
0.006
0.011
0.015
0.016
0.013
0.009
0.005
0.001
-0.004
-0.01
-0.014
-0.013
-0.012
-0.014
-0.012
-0.009
-0.001
0.001
0.003
0.003
0.004
0.006
0.002
-0.003
-0.008
-0.008
-0.011
-0.015
-0.021
-0.02
-0.017
-0.016
-0.012
-0.01
-0.001
0.009
0.015
0.017
0.017
0.018
0.017
0.013
0.007
0.001
-0.003
-0.004
-0.006
-0.008
-0.008
-0.004
0.004
0.008
0.01
0.012
0.015
0.018
0.016
0.013
0.009
0.006
0.006
0.005
0.005
0.008
0.012
0.019
0.026
0.032
0.038
0.043
0.048
0.049
0.05
0.049
0.046
0.044
0.045
0.048
0.05
0.052
0.059
0.067
0.076
0.081
0.087
0.091
0.094
0.093
0.09
0.087
0.08
0.076
0.07
0.065
0.063
0.062
0.065
0.07
0.074
0.082
0.089
0.098
0.104
0.106
0.11
0.11
0.11
0.106
0.103
0.101
0.1
0.1
0.099
0.1
0.105
0.111
0.117
0.118
0.121
0.125
0.128
0.128
0.123
0.119
0.118
0.115
0.107
0.099
0.095
0.095
0.094
0.092
0.09
0.092
0.101
0.106
0.107
0.107
0.109
0.112
0.112
0.107
0.103
0.104
0.108
0.111
0.112
0.118
0.13
0.143
0.154
0.163
0.172
0.185
0.196
0.202
0.202
0.203
0.206
0.207
0.208
0.207
0.211
0.221
0.23
0.239
0.247
0.26
0.276
0.289
0.299
0.305
0.315
0.322
0.327
0.33
0.333
0.34
0.348
0.356
0.363
0.374
0.388
0.402
0.413
0.42
0.428
0.434
0.438
0.438
0.435
0.432
0.43
0.429
0.425
0.423
0.423
0.424
0.427
0.425
0.422
0.422
0.42
0.414
0.406
0.392
0.379
0.367
0.354
0.341
0.327
0.313
0.303
0.294
0.289
0.281
0.274
0.268
0.263
0.257
0.248
0.239
0.228
0.216
0.204
0.188
0.173
0.161
0.151
0.141
0.129
0.121
0.119
0.118
0.118
0.113
0.11
0.109
0.106
0.098
0.088
0.077
0.069
0.063
0.054
0.047
0.04
0.039
0.04
0.042
0.042
0.046
0.05
0.054
0.052
0.05
0.048
0.045
0.041
0.031
0.025
0.021
0.018
0.015
0.009
0.006
0.006
0.008
0.008
0.005
0.002
0.001
0.002
0.001
-0.001
-0.001
0.012
0.027
0.045
0.07
0.106
0.156
0.209
0.272
0.343
0.425
0.517
0.616
0.724
0.834
0.953
1.083
1.221
1.362
1.506
1.656
1.815
1.972
2.124
2.272
2.416
2.557
2.686
2.798
2.893
2.976
3.046
3.089
3.104
3.094
3.066
3.012
2.933
2.83
2.715
2.587
2.443
2.287
2.122
1.956
1.788
1.618
1.448
1.28
1.12
0.965
0.817
0.677
0.548
0.429
0.322
0.227
0.145
0.074
0.015
-0.034
-0.079
-0.116
-0.149
-0.174
-0.195
-0.214
-0.229
-0.241
-0.246
-0.247
-0.244
-0.237
-0.228
-0.214
-0.194
-0.177
-0.16
-0.145
-0.131
-0.117
-0.105
-0.099
-0.092
-0.086
-0.078
-0.071
-0.061
-0.051
-0.041
-0.026
-0.013
0
0.009
0.017
0.025
0.028
0.029
0.026
0.024
0.023
0.023
0.02
0.019
0.023
0.029
0.036
0.041
0.046
0.051
0.056
0.059
0.056
0.052
0.047
0.044
0.038
0.031
0.028
0.028
0.03
0.034
0.036
0.042
0.05
0.058
0.064
0.068
0.07
0.077
0.081
0.083
0.081
0.081
0.087
0.091
0.092
0.095
0.101
0.111
0.12
0.125
0.129
0.137
0.146
0.15
0.151
0.153
0.155
0.158
0.156
0.152
0.151
0.154
0.158
0.16
0.161
0.169
0.18
0.19
0.199
0.203
0.21
0.216
0.219
0.221
0.218
0.218
0.22
0.221
0.221
0.224
0.231
0.24
0.249
0.257
0.265
0.273
0.283
0.289
0.292
0.292
0.294
0.295
0.296
0.298
0.3
0.305
0.312
0.319
0.329
0.34
0.351
0.362
0.371
0.379
0.387
0.393
0.399
0.404
0.407
0.411
0.417
0.424
0.435
0.446
0.457
0.472
0.487
0.504
0.517
0.53
0.542
0.552
0.56
0.566
0.57
0.578
0.585
0.594
0.602
0.614
0.629
0.644
0.662
0.675
0.689
0.704
0.72
0.732
0.741
0.749
0.76
0.77
0.781
0.789
0.799
0.813
0.828
0.843
0.855
0.869
0.887
0.903
0.917
0.925
0.935
0.948
0.957
0.962
0.963
0.967
0.975
0.98
0.985
0.989
0.998
1.01
1.021
1.03
1.039
1.049
1.058
1.063
1.063
1.062
1.061
1.059
1.054
1.045
1.04
1.039
1.036
1.033
1.028
1.026
1.024
1.019
1.01
0.998
0.985
0.972
0.956
0.936
0.914
0.895
0.882
0.865
0.847
0.83
0.817
0.807
0.792
0.774
0.752
0.732
0.709
0.682
0.652
0.623
0.593
0.564
0.535
0.506
0.48
0.454
0.433
0.412
0.389
0.368
0.346
0.327
0.303
0.278
0.252
0.224
0.198
0.171
0.145
0.121
0.098
0.08
0.063
0.047
0.034
0.02
0.008
-0.004
-0.019
-0.033
-0.046
-0.06
-0.075
-0.089
-0.103
-0.114
-0.127
-0.136
-0.145
-0.152
-0.158
-0.163
-0.167
-0.171
-0.176
-0.179
-0.183
-0.188
-0.198
-0.208
-0.217
-0.225
-0.234
-0.244
-0.251
-0.256
-0.257
-0.256
-0.256
-0.255
-0.252
-0.249
-0.25
-0.253
-0.257
-0.259
-0.263
-0.27
-0.277
-0.28
-0.279
-0.275
-0.273
-0.271
-0.264
-0.254
-0.246
-0.241
-0.238
-0.236
-0.233
-0.233
-0.237
-0.242
-0.244
-0.244
-0.242
-0.244
-0.244
-0.238
-0.23
-0.222
-0.219
-0.215
-0.211
-0.205
-0.204
-0.208
-0.212
-0.213
-0.216
-0.222
-0.227
-0.229
-0.225
-0.222
-0.219
-0.216
-0.212
-0.203
-0.198
-0.194
-0.196
-0.197
-0.198
-0.202
-0.206
-0.212
-0.214
-0.214
-0.214
-0.215
-0.216
-0.211
-0.203
-0.198
-0.196
-0.194
-0.191
-0.187
-0.185
-0.187
-0.189
-0.19
-0.189
-0.191
-0.193
-0.192
-0.19
-0.185
-0.184
-0.183
-0.177
-0.168
-0.161
-0.16
-0.16
-0.158
-0.158
-0.161
-0.165
-0.17
-0.173
-0.175
-0.177
-0.177
-0.176
-0.173
-0.168
-0.163
-0.159
-0.158
-0.157
-0.154
-0.155
-0.159
-0.165
-0.173
-0.177
-0.183
-0.186
-0.191
-0.192
-0.191
-0.189
-0.184
-0.183
-0.179
-0.177
-0.176
-0.178
-0.182
-0.186
-0.19
-0.193
-0.197
-0.199
-0.2
-0.199
-0.195
-0.189
-0.184
-0.18
-0.175
-0.17
-0.17
-0.171
-0.173
-0.175
-0.179
-0.186
-0.19
-0.191
-0.191
-0.191
-0.192
-0.19
-0.184
-0.176
-0.171
-0.171
-0.171
-0.17
-0.17
-0.174
-0.18
-0.186
-0.187
-0.19
-0.193
-0.196
-0.194
-0.189
-0.183
-0.179
-0.178
-0.173
-0.166
-0.161
-0.158
-0.162
-0.163
-0.162
-0.161
-0.165
-0.169
-0.172
-0.169
-0.167
-0.168
-0.167
-0.162
-0.152
-0.147
-0.144
-0.142
-0.138
-0.134
-0.136
-0.14
-0.144
-0.146
-0.147
-0.151
-0.156
-0.157
-0.154
-0.148
-0.141
-0.136
-0.129
-0.122
-0.119
-0.118
-0.121
-0.123
-0.127
-0.132
-0.138
-0.144
-0.146
-0.144
-0.142
-0.14
-0.137
-0.13
-0.124
-0.12
-0.119
-0.12
-0.121
-0.121
-0.125
-0.131
-0.137
-0.137
-0.137
-0.137
-0.134
-0.131
-0.123
-0.114
-0.107
-0.103
-0.099
-0.097
-0.095
-0.098
-0.102
-0.106
-0.11
-0.111
-0.113
-0.115
-0.114
-0.112
-0.107
-0.101
-0.097
-0.095
-0.092
-0.091
-0.092
-0.095
-0.098
-0.1
-0.103
-0.106
-0.109
-0.11
-0.108
-0.106
-0.103
-0.099
-0.095
-0.091
-0.089
-0.088
-0.088
-0.089
-0.09
-0.094
-0.099
-0.103
-0.108
-0.111
-0.113
-0.113
-0.114
-0.113
-0.106
-0.098
-0.086
-0.077
-0.068
-0.057
-0.045
-0.036
-0.032
-0.029
-0.024
-0.02
-0.016
-0.011
-0.005
0.007
0.019
0.029
0.04
0.053
0.067
0.079
0.086
0.09
0.094
0.101
0.105
0.105
0.108
0.113
0.122
0.132
0.14
0.153
0.168
0.184
0.198
0.207
0.215
0.224
0.231
0.236
0.234
0.231
0.234
0.237
0.239
0.236
0.239
0.247
0.255
0.263
0.266
0.27
0.276
0.277
0.276
0.266
0.259
0.252
0.243
0.235
0.224
0.219
0.216
0.213
0.208
0.204
0.203
0.202
0.198
0.189
0.18
0.168
0.157
0.141
0.123
0.105
0.089
0.075
0.06
0.046
0.034
0.026
0.019
0.009
-0.001
-0.009
-0.016
-0.025
-0.036
-0.051
-0.061
-0.07
-0.08
-0.09
-0.102
-0.11
-0.114
-0.117
-0.12
-0.123
-0.121
-0.117
-0.113
-0.116
-0.119
-0.12
-0.122
-0.127
-0.136
-0.144
-0.148
-0.15
-0.153
-0.155
-0.157
-0.154
-0.149
-0.145
-0.145
-0.146
-0.147
-0.147
-0.152
-0.162
-0.172
-0.182
-0.189
-0.195
-0.203
-0.206
-0.205
-0.198
-0.189
-0.177
-0.161
-0.14
-0.116
-0.09
-0.055
-0.014
0.033
0.089
0.155
0.232
0.321
0.421
0.532
0.657
0.788
0.928
1.077
1.232
1.392
1.55
1.709
1.868
2.024
2.178
2.324
2.464
2.598
2.722
2.827
2.913
2.983
3.035
3.054
3.041
2.999
2.931
2.835
2.714
2.573
2.408
2.232
2.049
1.859
1.667
1.474
1.286
1.107
0.936
0.775
0.624
0.485
0.358
0.243
0.138
0.041
-0.043
-0.114
-0.177
-0.232
-0.282
-0.32
-0.345
-0.364
-0.381
-0.39
-0.389
-0.381
-0.372
-0.367
-0.358
-0.347
-0.335
-0.326
-0.322
-0.315
-0.307
-0.299
-0.293
-0.287
-0.277
-0.265
-0.251
-0.24
-0.228
-0.216
-0.204
-0.198
-0.195
-0.196
-0.197
-0.196
-0.2
-0.203
-0.209
-0.21
-0.205
-0.202
-0.197
-0.194
-0.185
-0.176
-0.171
-0.169
-0.17
-0.169
-0.166
-0.169
-0.174
-0.177
-0.177
-0.175
-0.172
-0.169
-0.162
-0.151
-0.139
-0.13
-0.123
-0.116
-0.111
-0.107
-0.105
-0.106
-0.105
-0.106
-0.105
-0.103
-0.102
-0.097
-0.09
-0.08
-0.07
-0.06
-0.052
-0.044
-0.037
-0.031
-0.028
-0.028
-0.026
-0.026
-0.025
-0.025
-0.024
-0.02
-0.016
-0.008
-0.003
0.004
0.011
0.019
0.028
0.031
0.033
0.037
0.037
0.038
0.032
0.027
0.024
0.021
0.022
0.019
0.02
0.027
0.036
0.044
0.052
0.06
0.07
0.079
0.084
0.086
0.085
0.088
0.09
0.09
0.091
0.096
0.106
0.115
0.124
0.135
0.151
0.165
0.177
0.184
0.19
0.2
0.209
0.214
0.216
0.22
0.228
0.239
0.25
0.258
0.269
0.285
0.302
0.316
0.325
0.336
0.35
0.362
0.369
0.372
0.377
0.386
0.396
0.406
0.413
0.423
0.441
0.459
0.475
0.488
0.501
0.52
0.535
0.544
0.551
0.558
0.57
0.581
0.588
0.596
0.608
0.627
0.644
0.66
0.677
0.697
0.718
0.734
0.747
0.759
0.774
0.786
0.795
0.8
0.808
0.82
0.829
0.839
0.845
0.858
0.873
0.886
0.9
0.909
0.919
0.932
0.941
0.946
0.947
0.951
0.956
0.956
0.953
0.953
0.956
0.961
0.965
0.969
0.974
0.982
0.991
0.995
0.998
0.998
0.997
0.994
0.985
0.976
0.963
0.951
0.94
0.928
0.915
0.903
0.891
0.882
0.87
0.854
0.835
0.816
0.795
0.771
0.744
0.715
0.686
0.658
0.631
0.603
0.577
0.553
0.53
0.508
0.484
0.461
0.436
0.412
0.388
0.359
0.331
0.301
0.272
0.244
0.213
0.184
0.16
0.138
0.117
0.097
0.078
0.062
0.046
0.028
0.006
-0.017
-0.036
-0.057
-0.078
-0.103
-0.123
-0.14
-0.155
-0.17
-0.186
-0.195
-0.202
-0.21
-0.223
-0.234
-0.242
-0.249
-0.26
-0.274
-0.288
-0.3
-0.308
-0.317
-0.327
-0.336
-0.341
-0.342
-0.343
-0.346
-0.347
-0.344
-0.342
-0.342
-0.346
-0.349
-0.348
-0.351
-0.357
-0.368
-0.376
-0.378
-0.379
-0.382
-0.384
-0.382
-0.377
-0.372
-0.367
-0.366
-0.361
-0.358
-0.358
-0.361
-0.364
-0.367
-0.369
-0.373
-0.376
-0.379
-0.378
-0.374
-0.372
-0.367
-0.364
-0.36
-0.356
-0.355
-0.355
-0.357
-0.36
-0.362
-0.365
-0.368
-0.369
-0.369
-0.365
-0.361
-0.357
-0.349
-0.342
-0.334
-0.331
-0.327
-0.324
-0.324
-0.323
-0.326
-0.328
-0.33
-0.33
-0.329
-0.329
-0.327
-0.322
-0.313
-0.305
-0.297
-0.292
-0.287
-0.282
-0.281
-0.28
-0.282
-0.286
-0.288
-0.289
-0.291
-0.293
-0.293
-0.289
-0.283
-0.278
-0.276
-0.272
-0.266
-0.26
-0.257
-0.26
-0.262
-0.265
-0.265
-0.266
-0.27
-0.271
-0.27
-0.266
-0.264
-0.261
-0.256
-0.247
-0.239
-0.235
-0.232
-0.229
-0.224
-0.223
-0.224
-0.23
-0.235
-0.236
-0.238
-0.24
-0.243
-0.241
-0.236
-0.232
-0.227
-0.223
-0.216
-0.21
-0.208
-0.211
-0.212
-0.212
-0.215
-0.219
-0.226
-0.228
-0.228
-0.226
-0.223
-0.221
-0.215
-0.208
-0.204
-0.203
-0.204
-0.204
-0.205
-0.21
-0.219
-0.227
-0.231
-0.233
-0.236
-0.239
-0.24
-0.236
-0.228
-0.223
-0.22
-0.22
-0.217
-0.215
-0.217
-0.224
-0.23
-0.235
-0.237
-0.241
-0.246
-0.247
-0.244
-0.24
-0.236
-0.233
-0.228
-0.226
-0.224
-0.225
-0.226
-0.228
-0.231
-0.234
-0.238
-0.243
-0.246
-0.246
-0.245
-0.242
-0.24
-0.238
-0.233
-0.229
-0.224
-0.221
-0.221
-0.222
-0.224
-0.227
-0.231
-0.236
-0.24
-0.246
-0.249
-0.252
-0.253
-0.251
-0.249
-0.245
-0.243
-0.24
-0.235
-0.233
-0.231
-0.233
-0.236
-0.238
-0.241
-0.243
-0.247
-0.247
-0.248
-0.246
-0.243
-0.239
-0.233
-0.226
-0.221
-0.218
-0.216
-0.216
-0.215
-0.217
-0.221
-0.226
-0.23
-0.229
-0.227
-0.227
-0.224
-0.219
-0.211
-0.203
-0.203
-0.2
-0.2
-0.201
-0.202
-0.208
-0.216
-0.22
-0.223
-0.226
-0.229
-0.231
-0.228
-0.222
-0.217
-0.215
-0.212
-0.21
-0.207
-0.209
-0.214
-0.22
-0.222
-0.226
-0.229
-0.236
-0.24
-0.24
-0.236
-0.232
-0.229
-0.224
-0.218
-0.213
-0.211
-0.212
-0.215
-0.213
-0.215
-0.222
-0.228
-0.234
-0.235
-0.234
-0.236
-0.236
-0.235
-0.227
-0.223
-0.22
-0.218
-0.216
-0.21
-0.209
-0.212
-0.214
-0.213
-0.212
-0.214
-0.219
-0.222
-0.219
-0.216
-0.212
-0.211
-0.208
-0.201
-0.193
-0.188
-0.187
-0.185
-0.182
-0.181
-0.182
-0.187
-0.189
-0.185
-0.184
-0.183
-0.184
-0.179
-0.17
-0.162
-0.154
-0.15
-0.142
-0.134
-0.129
-0.124
-0.124
-0.121
-0.116
-0.113
-0.109
-0.103
-0.093
-0.078
-0.064
-0.05
-0.035
-0.02
-0.004
0.008
0.017
0.026
0.032
0.039
0.043
0.05
0.057
0.067
0.078
0.09
0.103
0.119
0.137
0.152
0.166
0.176
0.189
0.199
0.206
0.21
0.213
0.215
0.218
0.22
0.222
0.224
0.227
0.233
0.235
0.235
0.235
0.235
0.235
0.23
0.221
0.211
0.201
0.193
0.183
0.172
0.162
0.153
0.147
0.141
0.135
0.128
0.12
0.114
0.105
0.093
0.082
0.07
0.059
0.044
0.027
0.011
-0.003
-0.015
-0.029
-0.042
-0.052
-0.06
-0.066
-0.07
-0.077
-0.082
-0.088
-0.095
-0.104
-0.114
-0.123
-0.132
-0.141
-0.148
-0.155
-0.162
-0.165
-0.165
-0.163
-0.161
-0.159
-0.158
-0.155
-0.153
-0.153
-0.157
-0.159
-0.162
-0.166
-0.171
-0.175
-0.175
-0.173
-0.172
-0.173
-0.171
-0.168
-0.165
-0.167
-0.172
-0.178
-0.184
-0.192
-0.201
-0.213
-0.223
-0.226
-0.232
-0.236
-0.235
-0.232
-0.223
-0.211
-0.2
-0.189
-0.173
-0.149
-0.119
-0.088
-0.052
-0.004
0.059
0.133
0.209
0.3
0.407
0.524
0.648
0.78
0.925
1.077
1.233
1.39
1.549
1.709
1.871
2.031
2.184
2.331
2.473
2.606
2.722
2.824
2.909
2.971
3.007
3.012
2.993
2.939
2.858
2.753
2.625
2.475
2.303
2.124
1.938
1.747
1.554
1.362
1.179
1.007
0.844
0.689
0.546
0.417
0.301
0.193
0.093
0.006
-0.07
-0.136
-0.196
-0.247
-0.287
-0.317
-0.338
-0.355
-0.363
-0.365
-0.361
-0.356
-0.351
-0.346
-0.34
-0.333
-0.331
-0.328
-0.327
-0.324
-0.32
-0.315
-0.307
-0.3
-0.292
-0.279
-0.268
-0.256
-0.249
-0.243
-0.236
-0.232
-0.229
-0.23
-0.231
-0.231
-0.231
-0.23
-0.231
-0.228
-0.223
-0.216
-0.207
-0.201
-0.195
-0.187
-0.182
-0.177
-0.177
-0.179
-0.179
-0.179
-0.18
-0.182
-0.183
-0.179
-0.174
-0.168
-0.164
-0.158
-0.151
-0.144
-0.138
-0.135
-0.133
-0.129
-0.129
-0.132
-0.134
-0.133
-0.129
-0.125
-0.123
-0.117
-0.107
-0.096
-0.085
-0.08
-0.074
-0.068
-0.061
-0.058
-0.058
-0.059
-0.059
-0.061
-0.065
-0.07
-0.071
-0.065
-0.061
-0.056
-0.051
-0.042
-0.028
-0.015
-0.006
-0.001
0.005
0.012
0.016
0.019
0.016
0.017
0.024
0.027
0.031
0.036
0.047
0.06
0.071
0.079
0.088
0.098
0.108
0.114
0.116
0.118
0.12
0.122
0.124
0.127
0.133
0.141
0.151
0.162
0.171
0.184
0.196
0.207
0.217
0.222
0.23
0.234
0.238
0.241
0.246
0.254
0.263
0.272
0.283
0.294
0.307
0.321
0.334
0.345
0.354
0.365
0.374
0.379
0.384
0.387
0.394
0.403
0.41
0.421
0.431
0.443
0.457
0.472
0.489
0.503
0.518
0.532
0.544
0.555
0.563
0.574
0.585
0.597
0.608
0.618
0.632
0.647
0.663
0.679
0.696
0.712
0.731
0.748
0.762
0.773
0.786
0.796
0.805
0.81
0.814
0.82
0.827
0.835
0.841
0.85
0.863
0.878
0.894
0.906
0.917
0.927
0.936
0.945
0.948
0.951
0.953
0.956
0.96
0.961
0.964
0.971
0.979
0.986
0.989
0.992
0.996
0.999
1
0.994
0.987
0.981
0.973
0.963
0.949
0.938
0.933
0.924
0.913
0.902
0.893
0.887
0.874
0.858
0.84
0.82
0.801
0.777
0.75
0.721
0.696
0.672
0.646
0.618
0.591
0.57
0.549
0.526
0.499
0.473
0.449
0.423
0.394
0.36
0.326
0.297
0.266
0.236
0.204
0.177
0.154
0.132
0.109
0.085
0.065
0.049
0.03
0.008
-0.017
-0.04
-0.061
-0.084
-0.105
-0.129
-0.148
-0.164
-0.181
-0.194
-0.207
-0.217
-0.224
-0.232
-0.241
-0.249
-0.254
-0.26
-0.268
-0.279
-0.29
-0.301
-0.31
-0.321
-0.332
-0.34
-0.347
-0.351
-0.353
-0.354
-0.353
-0.352
-0.352
-0.353
-0.358
-0.359
-0.361
-0.366
-0.372
-0.378
-0.38
-0.379
-0.379
-0.377
-0.375
-0.37
-0.364
-0.36
-0.355
-0.354
-0.353
-0.354
-0.356
-0.358
-0.364
-0.368
-0.368
-0.368
-0.367
-0.367
-0.363
-0.356
-0.348
-0.34
-0.336
-0.332
-0.327
-0.323
-0.321
-0.324
-0.327
-0.328
-0.327
-0.328
-0.33
-0.329
-0.323
-0.317
-0.312
-0.309
-0.305
-0.301
-0.295
-0.295
-0.297
-0.301
-0.303
-0.305
-0.31
-0.314
-0.317
-0.315
-0.311
-0.31
-0.306
-0.299
-0.292
-0.285
-0.284
-0.282
-0.279
-0.276
-0.275
-0.279
-0.282
-0.282
-0.282
-0.283
-0.284
-0.284
-0.278
-0.274
-0.27
-0.269
-0.264
-0.256
-0.252
-0.25
-0.253
-0.254
-0.254
-0.258
-0.262
-0.27
-0.274
-0.271
-0.271
-0.268
-0.266
-0.259
-0.249
-0.242
-0.241
-0.24
-0.239
-0.238
-0.242
-0.25
-0.256
-0.259
-0.261
-0.263
-0.267
-0.267
-0.261
-0.254
-0.248
-0.246
-0.241
-0.237
-0.233
-0.236
-0.241
-0.245
-0.249
-0.253
-0.256
-0.259
-0.26
-0.259
-0.256
-0.251
-0.246
-0.242
-0.239
-0.237
-0.235
-0.236
-0.238
-0.242
-0.247
-0.252
-0.256
-0.258
-0.256
-0.255
-0.252
-0.247
-0.24
-0.232
-0.226
-0.221
-0.219
-0.217
-0.219
-0.222
-0.227
-0.233
-0.237
-0.239
-0.242
-0.244
-0.243
-0.24
-0.234
-0.227
-0.224
-0.221
-0.217
-0.213
-0.21
-0.212
-0.216
-0.218
-0.218
-0.22
-0.226
-0.231
-0.23
-0.228
-0.226
-0.227
-0.225
-0.218
-0.21
-0.205
-0.206
-0.205
-0.204
-0.201
-0.204
-0.211
-0.216
-0.217
-0.216
-0.217
-0.221
-0.22
-0.213
-0.206
-0.202
-0.202
-0.2
-0.195
-0.192
-0.194
-0.201
-0.205
-0.206
-0.209
-0.214
-0.22
-0.221
-0.216
-0.212
-0.21
-0.206
-0.2
-0.193
-0.191
-0.194
-0.195
-0.196
-0.198
-0.204
-0.207
-0.21
-0.21
-0.209
-0.207
-0.204
-0.2
-0.194
-0.189
-0.187
-0.188
-0.187
-0.186
-0.189
-0.194
-0.201
-0.204
-0.205
-0.207
-0.209
-0.209
-0.206
-0.199
-0.193
-0.188
-0.184
-0.178
-0.172
-0.17
-0.171
-0.173
-0.174
-0.174
-0.176
-0.178
-0.181
-0.18
-0.177
-0.173
-0.168
-0.166
-0.163
-0.158
-0.156
-0.156
-0.158
-0.161
-0.162
-0.165
-0.17
-0.175
-0.179
-0.179
-0.177
-0.178
-0.178
-0.174
-0.168
-0.16
-0.154
-0.15
-0.146
-0.142
-0.139
-0.141
-0.143
-0.146
-0.148
-0.148
-0.153
-0.153
-0.15
-0.146
-0.141
-0.137
-0.131
-0.126
-0.122
-0.12
-0.123
-0.127
-0.131
-0.135
-0.143
-0.15
-0.155
-0.154
-0.152
-0.151
-0.149
-0.143
-0.134
-0.127
-0.122
-0.121
-0.118
-0.115
-0.116
-0.119
-0.125
-0.127
-0.126
-0.127
-0.129
-0.128
-0.123
-0.116
-0.113
-0.111
-0.108
-0.105
-0.102
-0.104
-0.11
-0.115
-0.121
-0.124
-0.127
-0.132
-0.133
-0.13
-0.127
-0.123
-0.12
-0.116
-0.11
-0.106
-0.104
-0.105
-0.103
-0.103
-0.104
-0.107
-0.112
-0.113
-0.112
-0.11
-0.11
-0.108
-0.104
-0.097
-0.092
-0.086
-0.082
-0.078
-0.074
-0.075
-0.075
-0.078
-0.08
-0.083
-0.086
-0.087
-0.089
-0.088
-0.085
-0.08
-0.071
-0.062
-0.05
-0.037
-0.025
-0.016
-0.008
-0.003
0.002
0.006
0.007
0.011
0.015
0.023
0.031
0.042
0.055
0.068
0.084
0.098
0.11
0.12
0.131
0.139
0.147
0.148
0.151
0.158
0.168
0.18
0.191
0.205
0.223
0.242
0.263
0.279
0.291
0.303
0.313
0.321
0.323
0.324
0.327
0.328
0.329
0.327
0.328
0.332
0.336
0.339
0.337
0.336
0.335
0.334
0.328
0.316
0.302
0.29
0.279
0.263
0.247
0.232
0.222
0.212
0.202
0.194
0.187
0.184
0.178
0.168
0.157
0.145
0.135
0.121
0.105
0.086
0.072
0.061
0.048
0.035
0.025
0.02
0.015
0.011
0.004
0.001
0.001
-0.003
-0.01
-0.019
-0.025
-0.032
-0.043
-0.056
-0.067
-0.075
-0.08
-0.084
-0.088
-0.09
-0.088
-0.083
-0.079
-0.078
-0.08
-0.08
-0.081
-0.085
-0.091
-0.101
-0.108
-0.113
-0.12
-0.125
-0.129
-0.13
-0.128
-0.127
-0.127
-0.128
-0.129
-0.128
-0.133
-0.141
-0.148
-0.156
-0.161
-0.163
-0.163
-0.16
-0.152
-0.135
-0.111
-0.08
-0.043
0.004
0.059
0.12
0.188
0.267
0.357
0.451
0.555
0.667
0.791
0.923
1.067
1.22
1.378
1.54
1.705
1.872
2.038
2.196
2.346
2.489
2.618
2.735
2.831
2.907
2.965
3.002
3.016
2.995
2.948
2.882
2.794
2.681
2.542
2.389
2.225
2.05
1.865
1.673
1.482
1.299
1.119
0.944
0.78
0.63
0.499
0.376
0.264
0.167
0.084
0.017
-0.045
-0.101
-0.147
-0.184
-0.213
-0.24
-0.265
-0.287
-0.299
-0.308
-0.314
-0.317
-0.315
-0.306
-0.296
-0.285
-0.277
-0.265
-0.252
-0.243
-0.237
-0.234
-0.232
-0.227
-0.224
-0.221
-0.219
-0.213
-0.204
-0.194
-0.186
-0.178
-0.167
-0.156
-0.15
-0.145
-0.144
-0.141
-0.141
-0.144
-0.148
-0.151
-0.148
-0.145
-0.141
-0.137
-0.13
-0.12
-0.109
-0.101
-0.097
-0.092
-0.088
-0.087
-0.087
-0.089
-0.092
-0.093
-0.094
-0.092
-0.09
-0.085
-0.08
-0.07
-0.061
-0.053
-0.047
-0.041
-0.036
-0.033
-0.035
-0.038
-0.039
-0.04
-0.038
-0.04
-0.038
-0.034
-0.029
-0.021
-0.014
-0.008
-0.001
0.004
0.009
0.012
0.013
0.014
0.014
0.013
0.011
0.011
0.014
0.017
0.025
0.03
0.038
0.048
0.059
0.072
0.08
0.088
0.098
0.106
0.112
0.114
0.115
0.118
0.118
0.118
0.118
0.122
0.129
0.138
0.148
0.156
0.168
0.18
0.191
0.198
0.203
0.205
0.208
0.207
0.205
0.204
0.208
0.213
0.22
0.225
0.235
0.247
0.262
0.274
0.281
0.289
0.297
0.307
0.31
0.309
0.309
0.315
0.321
0.327
0.333
0.344
0.362
0.379
0.393
0.406
0.422
0.44
0.453
0.463
0.467
0.474
0.483
0.491
0.499
0.507
0.519
0.534
0.55
0.564
0.581
0.598
0.617
0.632
0.641
0.652
0.663
0.672
0.678
0.683
0.69
0.7
0.712
0.725
0.737
0.752
0.769
0.786
0.803
0.816
0.832
0.848
0.859
0.868
0.874
0.883
0.893
0.901
0.908
0.916
0.927
0.939
0.951
0.963
0.974
0.986
0.996
1.006
1.013
1.019
1.021
1.024
1.021
1.02
1.014
1.011
1.011
1.009
1.011
1.009
1.01
1.014
1.018
1.019
1.015
1.01
1.003
0.994
0.98
0.963
0.947
0.931
0.915
0.898
0.882
0.866
0.855
0.844
0.83
0.814
0.795
0.776
0.756
0.731
0.705
0.677
0.65
0.623
0.593
0.566
0.541
0.519
0.499
0.476
0.453
0.432
0.411
0.387
0.358
0.327
0.298
0.269
0.238
0.206
0.179
0.155
0.132
0.112
0.091
0.077
0.067
0.053
0.04
0.02
0.003
-0.014
-0.032
-0.054
-0.078
-0.098
-0.116
-0.132
-0.149
-0.163
-0.172
-0.176
-0.183
-0.19
-0.197
-0.201
-0.202
-0.211
-0.221
-0.234
-0.244
-0.252
-0.262
-0.275
-0.283
-0.289
-0.294
-0.299
-0.304
-0.304
-0.301
-0.298
-0.298
-0.3
-0.298
-0.297
-0.299
-0.303
-0.307
-0.315
-0.319
-0.323
-0.324
-0.325
-0.323
-0.319
-0.314
-0.308
-0.302
-0.296
-0.29
-0.288
-0.288
-0.29
-0.292
-0.295
-0.298
-0.299
-0.302
-0.303
-0.3
-0.296
-0.288
-0.28
-0.271
-0.264
-0.259
-0.256
-0.255
-0.255
-0.255
-0.26
-0.263
-0.267
-0.268
-0.266
-0.263
-0.258
-0.253
-0.245
-0.238
-0.231
-0.227
-0.223
-0.221
-0.22
-0.221
-0.226
-0.23
-0.231
-0.232
-0.23
-0.232
-0.23
-0.225
-0.216
-0.209
-0.205
-0.202
-0.199
-0.194
-0.194
-0.197
-0.203
-0.206
-0.207
-0.212
-0.217
-0.219
-0.217
-0.213
-0.209
-0.209
-0.207
-0.2
-0.194
-0.191
-0.192
-0.196
-0.196
-0.198
-0.2
-0.205
-0.207
-0.206
-0.206
-0.206
-0.206
-0.204
-0.196
-0.19
-0.185
-0.182
-0.178
-0.173
-0.171
-0.175
-0.182
-0.186
-0.19
-0.194
-0.201
-0.206
-0.208
-0.205
-0.204
-0.205
-0.2
-0.194
-0.189
-0.185
-0.187
-0.189
-0.187
-0.189
-0.194
-0.2
-0.207
-0.207
-0.206
-0.207
-0.207
-0.203
-0.195
-0.189
-0.186
-0.186
-0.184
-0.18
-0.182
-0.187
-0.198
-0.203
-0.204
-0.206
-0.209
-0.211
-0.208
-0.202
-0.197
-0.194
-0.191
-0.186
-0.181
-0.181
-0.184
-0.185
-0.189
-0.19
-0.191
-0.194
-0.193
-0.192
-0.188
-0.184
-0.179
-0.173
-0.169
-0.165
-0.163
-0.165
-0.167
-0.17
-0.175
-0.18
-0.185
-0.19
-0.192
-0.193
-0.194
-0.193
-0.189
-0.186
-0.183
-0.18
-0.177
-0.176
-0.173
-0.174
-0.176
-0.178
-0.18
-0.18
-0.184
-0.185
-0.188
-0.189
-0.188
-0.186
-0.179
-0.175
-0.168
-0.161
-0.155
-0.15
-0.15
-0.15
-0.151
-0.152
-0.159
-0.164
-0.169
-0.168
-0.166
-0.166
-0.163
-0.159
-0.15
-0.141
-0.138
-0.137
-0.135
-0.133
-0.134
-0.139
-0.147
-0.151
-0.154
-0.154
-0.157
-0.157
-0.153
-0.147
-0.138
-0.135
-0.131
-0.127
-0.125
-0.123
-0.128
-0.133
-0.137
-0.138
-0.142
-0.147
-0.15
-0.149
-0.144
-0.14
-0.136
-0.132
-0.125
-0.12
-0.117
-0.12
-0.121
-0.121
-0.124
-0.127
-0.135
-0.137
-0.136
-0.135
-0.135
-0.135
-0.131
-0.125
-0.12
-0.118
-0.117
-0.114
-0.11
-0.112
-0.116
-0.12
-0.121
-0.12
-0.122
-0.125
-0.126
-0.123
-0.118
-0.115
-0.116
-0.115
-0.109
-0.107
-0.106
-0.11
-0.111
-0.111
-0.114
-0.118
-0.123
-0.127
-0.126
-0.125
-0.126
-0.125
-0.118
-0.109
-0.101
-0.095
-0.091
-0.086
-0.08
-0.08
-0.083
-0.088
-0.093
-0.094
-0.097
-0.097
-0.099
-0.098
-0.092
-0.087
-0.078
-0.073
-0.068
-0.062
-0.06
-0.061
-0.062
-0.065
-0.069
-0.075
-0.082
-0.085
-0.088
-0.086
-0.084
-0.079
-0.073
-0.068
-0.062
-0.057
-0.054
-0.054
-0.055
-0.057
-0.061
-0.065
-0.069
-0.069
-0.071
-0.068
-0.067
-0.062
-0.056
-0.05
-0.044
-0.041
-0.039
-0.037
-0.036
-0.038
-0.045
-0.051
-0.054
-0.055
-0.058
-0.061
-0.062
-0.057
-0.051
-0.045
-0.044
-0.042
-0.038
-0.036
-0.035
-0.039
-0.043
-0.044
-0.046
-0.049
-0.054
-0.056
-0.051
-0.046
-0.043
-0.039
-0.035
-0.026
-0.019
-0.016
-0.015
-0.016
-0.014
-0.015
-0.019
-0.023
-0.029
-0.029
-0.029
-0.034
-0.035
-0.032
-0.023
-0.015
-0.011
-0.006
0.002
0.006
0.009
0.006
0.002
0.001
-0.003
-0.008
-0.012
-0.013
-0.009
-0.006
0
0.006
0.018
0.031
0.039
0.044
0.047
0.051
0.056
0.058
0.056
0.054
0.06
0.067
0.076
0.088
0.098
0.113
0.129
0.146
0.158
0.171
0.184
0.197
0.206
0.209
0.216
0.224
0.234
0.244
0.253
0.267
0.284
0.303
0.323
0.341
0.358
0.373
0.387
0.396
0.4
0.401
0.402
0.401
0.398
0.394
0.39
0.388
0.389
0.391
0.391
0.391
0.391
0.389
0.389
0.383
0.374
0.364
0.353
0.342
0.329
0.316
0.306
0.296
0.289
0.282
0.276
0.272
0.267
0.264
0.256
0.247
0.238
0.227
0.215
0.196
0.178
0.161
0.143
0.126
0.107
0.093
0.085
0.078
0.07
0.065
0.064
0.066
0.065
0.06
0.053
0.048
0.044
0.035
0.023
0.013
0.01
0.007
0.005
0.001
0.001
0.008
0.016
0.02
0.019
0.02
0.024
0.024
0.02
0.011
0.004
0
-0.004
-0.011
-0.02
-0.025
-0.025
-0.026
-0.028
-0.033
-0.039
-0.041
-0.046
-0.054
-0.066
-0.075
-0.078
-0.081
-0.079
-0.079
-0.069
-0.049
-0.023
0.009
0.045
0.095
0.157
0.222
0.292
0.371
0.463
0.562
0.663
0.773
0.895
1.027
1.165
1.312
1.466
1.625
1.787
1.951
2.109
2.262
2.411
2.547
2.67
2.779
2.87
2.94
2.986
3.011
3.013
2.984
2.93
2.852
2.754
2.63
2.487
2.331
2.165
1.99
1.808
1.624
1.44
1.26
1.086
0.916
0.755
0.607
0.475
0.354
0.247
0.152
0.071
0.005
-0.051
-0.096
-0.139
-0.173
-0.199
-0.22
-0.238
-0.256
-0.268
-0.273
-0.275
-0.274
-0.272
-0.265
-0.25
-0.233
-0.219
-0.205
-0.192
-0.178
-0.165
-0.159
-0.156
-0.154
-0.15
-0.146
-0.146
-0.145
-0.141
-0.134
-0.125
-0.119
-0.112
-0.102
-0.092
-0.084
-0.082
-0.08
-0.079
-0.078
-0.079
-0.084
-0.086
-0.085
-0.082
-0.079
-0.077
-0.071
-0.06
-0.051
-0.045
-0.043
-0.038
-0.033
-0.033
-0.035
-0.04
-0.041
-0.041
-0.043
-0.045
-0.046
-0.04
-0.031
-0.022
-0.017
-0.012
-0.003
0.005
0.009
0.009
0.006
0.004
0.004
0.002
-0.002
-0.005
-0.003
0.002
0.006
0.009
0.015
0.027
0.037
0.045
0.049
0.055
0.063
0.069
0.069
0.065
0.063
0.062
0.06
0.06
0.06
0.064
0.071
0.08
0.09
0.1
0.112
0.124
0.133
0.138
0.142
0.145
0.147
0.146
0.145
0.146
0.147
0.152
0.16
0.171
0.181
0.191
0.203
0.213
0.223
0.23
0.234
0.239
0.239
0.239
0.239
0.241
0.246
0.251
0.257
0.266
0.277
0.292
0.304
0.316
0.325
0.333
0.34
0.345
0.348
0.349
0.351
0.354
0.358
0.363
0.371
0.383
0.396
0.411
0.424
0.438
0.452
0.466
0.478
0.486
0.49
0.496
0.505
0.514
0.521
0.529
0.542
0.557
0.571
0.585
0.6
0.619
0.635
0.65
0.66
0.669
0.68
0.688
0.697
0.698
0.702
0.71
0.72
0.728
0.736
0.745
0.76
0.776
0.789
0.803
0.818
0.834
0.849
0.86
0.867
0.875
0.885
0.893
0.898
0.902
0.91
0.92
0.932
0.939
0.951
0.964
0.977
0.986
0.99
0.995
1.001
1.002
0.999
0.991
0.988
0.989
0.988
0.988
0.985
0.988
0.994
0.999
0.999
0.996
0.994
0.992
0.984
0.972
0.956
0.941
0.927
0.911
0.895
0.877
0.865
0.854
0.844
0.832
0.817
0.804
0.79
0.773
0.749
0.724
0.698
0.673
0.646
0.615
0.589
0.562
0.539
0.514
0.492
0.472
0.45
0.43
0.406
0.383
0.357
0.331
0.305
0.276
0.247
0.221
0.198
0.176
0.157
0.137
0.121
0.107
0.094
0.081
0.066
0.052
0.035
0.017
-0.001
-0.022
-0.043
-0.063
-0.083
-0.102
-0.121
-0.135
-0.146
-0.157
-0.165
-0.175
-0.181
-0.184
-0.188
-0.192
-0.201
-0.209
-0.218
-0.226
-0.236
-0.248
-0.258
-0.263
-0.267
-0.271
-0.273
-0.271
-0.265
-0.258
-0.256
-0.256
-0.254
-0.251
-0.253
-0.257
-0.266
-0.272
-0.275
-0.277
-0.283
-0.287
-0.285
-0.281
-0.277
-0.275
-0.273
-0.267
-0.264
-0.264
-0.268
-0.271
-0.271
-0.274
-0.276
-0.281
-0.282
-0.278
-0.272
-0.267
-0.264
-0.257
-0.248
-0.241
-0.237
-0.237
-0.236
-0.233
-0.234
-0.237
-0.242
-0.241
-0.239
-0.237
-0.235
-0.235
-0.229
-0.22
-0.214
-0.211
-0.21
-0.205
-0.202
-0.204
-0.209
-0.212
-0.215
-0.216
-0.219
-0.223
-0.221
-0.218
-0.211
-0.205
-0.201
-0.196
-0.189
-0.184
-0.184
-0.186
-0.188
-0.191
-0.194
-0.2
-0.206
-0.21
-0.211
-0.213
-0.216
-0.215
-0.211
-0.205
-0.198
-0.191
-0.187
-0.183
-0.18
-0.179
-0.18
-0.184
-0.187
-0.19
-0.193
-0.195
-0.197
-0.197
-0.192
-0.189
-0.181
-0.177
-0.172
-0.167
-0.161
-0.159
-0.162
-0.166
-0.168
-0.17
-0.174
-0.179
-0.182
-0.18
-0.175
-0.172
-0.167
-0.16
-0.152
-0.145
-0.143
-0.144
-0.146
-0.146
-0.149
-0.155
-0.161
-0.166
-0.167
-0.17
-0.17
-0.17
-0.166
-0.159
-0.154
-0.154
-0.153
-0.151
-0.151
-0.153
-0.16
-0.167
-0.17
-0.171
-0.174
-0.178
-0.18
-0.176
-0.171
-0.169
-0.168
-0.166
-0.161
-0.159
-0.162
-0.166
-0.17
-0.171
-0.176
-0.18
-0.186
-0.188
-0.188
-0.188
-0.186
-0.186
-0.181
-0.177
-0.174
-0.175
-0.173
-0.171
-0.17
-0.173
-0.178
-0.182
-0.184
-0.185
-0.187
-0.19
-0.189
-0.187
-0.183
-0.177
-0.172
-0.163
-0.157
-0.152
-0.151
-0.153
-0.152
-0.153
-0.156
-0.161
-0.166
-0.168
-0.167
-0.167
-0.164
-0.16
-0.155
-0.149
-0.146
-0.14
-0.141
-0.141
-0.142
-0.145
-0.149
-0.156
-0.16
-0.161
-0.162
-0.161
-0.161
-0.156
-0.148
-0.138
-0.131
-0.128
-0.127
-0.123
-0.122
-0.125
-0.13
-0.136
-0.137
-0.137
-0.139
-0.14
-0.138
-0.13
-0.123
-0.118
-0.117
-0.115
-0.111
-0.108
-0.11
-0.114
-0.119
-0.121
-0.124
-0.128
-0.131
-0.13
-0.127
-0.122
-0.122
-0.118
-0.113
-0.106
-0.102
-0.103
-0.105
-0.106
-0.107
-0.111
-0.116
-0.12
-0.121
-0.122
-0.125
-0.126
-0.125
-0.118
-0.113
-0.109
-0.108
-0.105
-0.098
-0.096
-0.096
-0.101
-0.104
-0.103
-0.107
-0.111
-0.116
-0.116
-0.113
-0.111
-0.109
-0.107
-0.1
-0.09
-0.084
-0.082
-0.082
-0.081
-0.081
-0.085
-0.092
-0.099
-0.104
-0.105
-0.106
-0.108
-0.105
-0.098
-0.086
-0.077
-0.073
-0.068
-0.061
-0.057
-0.057
-0.062
-0.066
-0.067
-0.071
-0.073
-0.078
-0.077
-0.071
-0.066
-0.059
-0.053
-0.045
-0.037
-0.032
-0.032
-0.034
-0.035
-0.038
-0.043
-0.047
-0.052
-0.053
-0.05
-0.048
-0.043
-0.038
-0.029
-0.022
-0.017
-0.015
-0.014
-0.015
-0.015
-0.02
-0.026
-0.029
-0.032
-0.032
-0.032
-0.029
-0.026
-0.02
-0.013
-0.006
-0.001
0.002
0.004
0.005
0.004
-0.002
-0.009
-0.015
-0.018
-0.022
-0.029
-0.031
-0.032
-0.029
-0.024
-0.023
-0.02
-0.015
-0.009
-0.004
-0.005
-0.006
-0.007
-0.008
-0.014
-0.022
-0.029
-0.03
-0.029
-0.029
-0.029
-0.024
-0.014
-0.001
0.011
0.018
0.024
0.032
0.04
0.045
0.045
0.046
0.051
0.056
0.06
0.066
0.075
0.092
0.107
0.121
0.136
0.151
0.169
0.182
0.191
0.198
0.206
0.214
0.219
0.225
0.233
0.246
0.261
0.275
0.29
0.308
0.328
0.346
0.361
0.371
0.38
0.39
0.395
0.395
0.392
0.392
0.393
0.393
0.393
0.391
0.394
0.4
0.405
0.404
0.401
0.4
0.398
0.389
0.376
0.359
0.346
0.335
0.32
0.307
0.294
0.285
0.279
0.273
0.266
0.259
0.252
0.245
0.234
0.22
0.204
0.188
0.172
0.154
0.136
0.119
0.103
0.092
0.081
0.073
0.065
0.058
0.053
0.048
0.042
0.036
0.03
0.023
0.015
0.006
-0.005
-0.014
-0.023
-0.032
-0.039
-0.043
-0.044
-0.045
-0.04
-0.037
-0.035
-0.031
-0.029
-0.028
-0.03
-0.033
-0.039
-0.045
-0.051
-0.06
-0.064
-0.068
-0.071
-0.073
-0.076
-0.079
-0.081
-0.081
-0.084
-0.091
-0.099
-0.102
-0.106
-0.112
-0.116
-0.115
-0.106
-0.095
-0.081
-0.058
-0.027
0.015
0.062
0.117
0.177
0.246
0.326
0.413
0.506
0.603
0.712
0.835
0.963
1.094
1.233
1.384
1.541
1.699
1.853
2.005
2.157
2.304
2.438
2.554
2.659
2.753
2.828
2.877
2.902
2.909
2.892
2.845
2.77
2.675
2.562
2.432
2.283
2.121
1.949
1.772
1.595
1.414
1.237
1.062
0.899
0.743
0.597
0.466
0.347
0.24
0.149
0.067
-0.004
-0.064
-0.113
-0.152
-0.189
-0.219
-0.243
-0.263
-0.277
-0.291
-0.301
-0.307
-0.306
-0.304
-0.296
-0.285
-0.272
-0.254
-0.238
-0.223
-0.21
-0.197
-0.186
-0.179
-0.176
-0.175
-0.172
-0.169
-0.165
-0.161
-0.156
-0.15
-0.141
-0.128
-0.117
-0.108
-0.104
-0.099
-0.095
-0.094
-0.097
-0.104
-0.106
-0.108
-0.109
-0.111
-0.11
-0.105
-0.097
-0.088
-0.083
-0.076
-0.068
-0.061
-0.057
-0.059
-0.06
-0.06
-0.059
-0.062
-0.064
-0.064
-0.059
-0.052
-0.047
-0.04
-0.033
-0.023
-0.013
-0.007
-0.004
-0.003
0
-0.001
-0.005
-0.009
-0.01
-0.008
-0.006
-0.005
0
0.012
0.024
0.035
0.042
0.05
0.06
0.068
0.071
0.071
0.071
0.074
0.076
0.074
0.072
0.075
0.082
0.09
0.096
0.101
0.111
0.125
0.134
0.142
0.145
0.15
0.155
0.155
0.153
0.147
0.145
0.147
0.15
0.151
0.154
0.164
0.177
0.189
0.196
0.203
0.214
0.223
0.227
0.226
0.226
0.225
0.227
0.229
0.23
0.235
0.242
0.254
0.265
0.279
0.291
0.304
0.314
0.321
0.326
0.332
0.336
0.338
0.341
0.345
0.351
0.359
0.368
0.381
0.394
0.409
0.426
0.44
0.453
0.462
0.469
0.476
0.48
0.485
0.486
0.491
0.497
0.506
0.517
0.528
0.543
0.561
0.578
0.597
0.61
0.622
0.635
0.646
0.656
0.66
0.665
0.674
0.683
0.691
0.701
0.712
0.73
0.747
0.763
0.777
0.792
0.809
0.823
0.833
0.839
0.846
0.855
0.859
0.862
0.866
0.874
0.882
0.889
0.893
0.901
0.914
0.926
0.936
0.943
0.95
0.958
0.961
0.964
0.959
0.955
0.954
0.95
0.945
0.941
0.939
0.942
0.942
0.944
0.945
0.946
0.949
0.946
0.942
0.932
0.922
0.913
0.899
0.884
0.869
0.857
0.847
0.835
0.823
0.812
0.805
0.796
0.781
0.764
0.747
0.728
0.705
0.678
0.652
0.626
0.601
0.576
0.553
0.532
0.513
0.496
0.48
0.463
0.443
0.423
0.404
0.38
0.354
0.326
0.299
0.271
0.243
0.216
0.19
0.167
0.145
0.127
0.11
0.094
0.078
0.062
0.045
0.026
0.006
-0.014
-0.034
-0.055
-0.073
-0.092
-0.109
-0.123
-0.135
-0.145
-0.155
-0.163
-0.169
-0.174
-0.179
-0.187
-0.195
-0.202
-0.209
-0.22
-0.23
-0.238
-0.244
-0.249
-0.254
-0.259
-0.261
-0.257
-0.254
-0.251
-0.247
-0.243
-0.238
-0.236
-0.239
-0.242
-0.246
-0.25
-0.257
-0.268
-0.274
-0.278
-0.279
-0.281
-0.282
-0.279
-0.273
-0.266
-0.263
-0.263
-0.263
-0.262
-0.264
-0.269
-0.277
-0.281
-0.282
-0.281
-0.28
-0.28
-0.275
-0.264
-0.254
-0.246
-0.241
-0.234
-0.226
-0.223
-0.223
-0.227
-0.229
-0.232
-0.236
-0.241
-0.245
-0.243
-0.239
-0.235
-0.231
-0.226
-0.219
-0.213
-0.21
-0.211
-0.211
-0.212
-0.213
-0.218
-0.222
-0.223
-0.223
-0.221
-0.218
-0.217
-0.211
-0.202
-0.194
-0.19
-0.189
-0.187
-0.186
-0.189
-0.194
-0.201
-0.206
-0.211
-0.215
-0.218
-0.219
-0.218
-0.215
-0.214
-0.212
-0.21
-0.207
-0.203
-0.204
-0.206
-0.211
-0.215
-0.219
-0.221
-0.224
-0.229
-0.232
-0.232
-0.229
-0.225
-0.222
-0.216
-0.208
-0.201
-0.197
-0.194
-0.193
-0.191
-0.192
-0.198
-0.205
-0.211
-0.213
-0.216
-0.217
-0.219
-0.219
-0.213
-0.207
-0.205
-0.204
-0.203
-0.203
-0.203
-0.21
-0.218
-0.225
-0.231
-0.235
-0.243
-0.246
-0.247
-0.244
-0.24
-0.237
-0.235
-0.228
-0.222
-0.219
-0.222
-0.225
-0.225
-0.226
-0.23
-0.234
-0.235
-0.23
-0.226
-0.221
-0.218
-0.211
-0.202
-0.196
-0.193
-0.193
-0.193
-0.192
-0.196
-0.202
-0.209
-0.212
-0.212
-0.215
-0.219
-0.22
-0.217
-0.211
-0.208
-0.207
-0.208
-0.205
-0.204
-0.207
-0.212
-0.217
-0.219
-0.222
-0.226
-0.23
-0.23
-0.226
-0.222
-0.218
-0.217
-0.21
-0.203
-0.197
-0.195
-0.195
-0.194
-0.195
-0.198
-0.2
-0.203
-0.206
-0.206
-0.208
-0.207
-0.206
-0.202
-0.195
-0.189
-0.184
-0.179
-0.176
-0.172
-0.171
-0.172
-0.177
-0.183
-0.188
-0.193
-0.193
-0.198
-0.2
-0.198
-0.196
-0.192
-0.187
-0.183
-0.179
-0.177
-0.178
-0.18
-0.184
-0.187
-0.191
-0.197
-0.199
-0.201
-0.199
-0.195
-0.19
-0.184
-0.177
-0.169
-0.162
-0.16
-0.158
-0.158
-0.158
-0.163
-0.172
-0.178
-0.181
-0.18
-0.18
-0.18
-0.178
-0.171
-0.16
-0.154
-0.151
-0.149
-0.147
-0.146
-0.147
-0.155
-0.162
-0.165
-0.169
-0.173
-0.179
-0.181
-0.177
-0.172
-0.167
-0.167
-0.163
-0.156
-0.15
-0.147
-0.151
-0.153
-0.153
-0.154
-0.157
-0.163
-0.165
-0.162
-0.161
-0.159
-0.156
-0.149
-0.141
-0.134
-0.129
-0.125
-0.12
-0.115
-0.115
-0.119
-0.121
-0.123
-0.125
-0.127
-0.13
-0.129
-0.124
-0.118
-0.112
-0.105
-0.094
-0.084
-0.077
-0.074
-0.074
-0.073
-0.072
-0.076
-0.082
-0.088
-0.091
-0.092
-0.094
-0.096
-0.097
-0.093
-0.088
-0.084
-0.081
-0.079
-0.075
-0.074
-0.074
-0.076
-0.078
-0.079
-0.078
-0.077
-0.074
-0.068
-0.061
-0.05
-0.041
-0.032
-0.027
-0.024
-0.02
-0.02
-0.023
-0.029
-0.037
-0.042
-0.045
-0.049
-0.053
-0.053
-0.047
-0.038
-0.03
-0.022
-0.01
0
0.01
0.014
0.017
0.022
0.028
0.033
0.036
0.041
0.048
0.059
0.074
0.086
0.1
0.116
0.132
0.147
0.159
0.17
0.181
0.192
0.2
0.205
0.213
0.225
0.239
0.251
0.26
0.272
0.289
0.304
0.316
0.325
0.335
0.346
0.352
0.353
0.352
0.351
0.349
0.343
0.331
0.323
0.318
0.317
0.313
0.308
0.304
0.304
0.305
0.302
0.295
0.287
0.278
0.266
0.25
0.229
0.21
0.194
0.177
0.16
0.141
0.128
0.123
0.117
0.11
0.099
0.089
0.08
0.07
0.055
0.037
0.02
0.005
-0.01
-0.026
-0.04
-0.05
-0.054
-0.058
-0.061
-0.064
-0.064
-0.062
-0.064
-0.066
-0.074
-0.08
-0.086
-0.094
-0.101
-0.108
-0.111
-0.114
-0.114
-0.114
-0.108
-0.101
-0.093
-0.089
-0.086
-0.082
-0.08
-0.08
-0.084
-0.092
-0.099
-0.106
-0.113
-0.121
-0.128
-0.132
-0.135
-0.138
-0.142
-0.147
-0.149
-0.149
-0.151
-0.152
-0.155
-0.152
-0.147
-0.137
-0.123
-0.105
-0.076
-0.039
0.006
0.059
0.123
0.197
0.281
0.37
0.471
0.577
0.691
0.812
0.942
1.076
1.21
1.347
1.493
1.643
1.793
1.935
2.078
2.219
2.354
2.478
2.579
2.666
2.737
2.789
2.806
2.796
2.763
2.71
2.63
2.523
2.398
2.257
2.109
1.95
1.783
1.612
1.44
1.27
1.102
0.934
0.776
0.626
0.488
0.358
0.237
0.133
0.045
-0.029
-0.092
-0.146
-0.186
-0.214
-0.235
-0.252
-0.266
-0.274
-0.277
-0.28
-0.284
-0.288
-0.284
-0.277
-0.272
-0.265
-0.259
-0.245
-0.23
-0.215
-0.202
-0.192
-0.179
-0.168
-0.161
-0.156
-0.155
-0.153
-0.15
-0.149
-0.149
-0.146
-0.14
-0.13
-0.122
-0.115
-0.106
-0.097
-0.086
-0.078
-0.075
-0.071
-0.071
-0.069
-0.071
-0.074
-0.075
-0.077
-0.075
-0.075
-0.074
-0.071
-0.065
-0.059
-0.054
-0.049
-0.046
-0.042
-0.04
-0.038
-0.039
-0.041
-0.043
-0.046
-0.046
-0.048
-0.046
-0.043
-0.037
-0.03
-0.024
-0.015
-0.008
-0.001
0.004
0.004
0.003
0.003
0.001
-0.001
-0.004
-0.006
-0.004
0
0.005
0.01
0.016
0.028
0.035
0.043
0.046
0.049
0.052
0.054
0.051
0.047
0.044
0.047
0.051
0.055
0.061
0.07
0.084
0.097
0.106
0.114
0.124
0.135
0.141
0.141
0.141
0.144
0.148
0.151
0.152
0.157
0.167
0.178
0.188
0.197
0.208
0.222
0.233
0.242
0.244
0.248
0.253
0.256
0.256
0.254
0.256
0.262
0.269
0.276
0.283
0.293
0.307
0.32
0.33
0.337
0.346
0.357
0.363
0.366
0.368
0.374
0.38
0.386
0.39
0.398
0.41
0.423
0.436
0.448
0.462
0.477
0.491
0.503
0.513
0.523
0.532
0.54
0.546
0.549
0.557
0.568
0.578
0.591
0.603
0.619
0.636
0.654
0.671
0.685
0.699
0.711
0.721
0.729
0.735
0.741
0.749
0.757
0.766
0.776
0.79
0.807
0.823
0.84
0.854
0.867
0.879
0.888
0.896
0.899
0.902
0.904
0.907
0.914
0.918
0.925
0.935
0.947
0.958
0.967
0.975
0.983
0.99
0.992
0.991
0.987
0.984
0.98
0.976
0.971
0.97
0.97
0.973
0.972
0.973
0.974
0.976
0.976
0.97
0.964
0.956
0.945
0.933
0.915
0.898
0.883
0.868
0.853
0.837
0.82
0.807
0.796
0.783
0.767
0.751
0.734
0.716
0.694
0.667
0.641
0.615
0.59
0.563
0.532
0.504
0.481
0.457
0.435
0.41
0.389
0.372
0.355
0.335
0.311
0.288
0.268
0.245
0.217
0.187
0.161
0.14
0.117
0.092
0.07
0.054
0.042
0.028
0.015
-0.001
-0.014
-0.024
-0.037
-0.055
-0.071
-0.086
-0.099
-0.114
-0.131
-0.144
-0.15
-0.155
-0.158
-0.164
-0.167
-0.167
-0.169
-0.174
-0.181
-0.187
-0.193
-0.201
-0.209
-0.219
-0.223
-0.224
-0.225
-0.226
-0.226
-0.22
-0.213
-0.209
-0.205
-0.205
-0.204
-0.203
-0.206
-0.21
-0.216
-0.22
-0.222
-0.226
-0.227
-0.226
-0.224
-0.217
-0.212
-0.207
-0.202
-0.196
-0.191
-0.189
-0.188
-0.189
-0.191
-0.192
-0.195
-0.198
-0.199
-0.198
-0.196
-0.193
-0.19
-0.187
-0.182
-0.176
-0.171
-0.17
-0.169
-0.169
-0.17
-0.172
-0.174
-0.176
-0.178
-0.177
-0.177
-0.175
-0.173
-0.167
-0.161
-0.153
-0.147
-0.143
-0.139
-0.136
-0.135
-0.141
-0.147
-0.152
-0.157
-0.162
-0.168
-0.172
-0.17
-0.168
-0.165
-0.162
-0.158
-0.152
-0.146
-0.145
-0.147
-0.149
-0.149
-0.153
-0.16
-0.168
-0.172
-0.17
-0.17
-0.169
-0.167
-0.162
-0.154
-0.147
-0.146
-0.146
-0.146
-0.146
-0.148
-0.157
-0.162
-0.163
-0.162
-0.164
-0.167
-0.164
-0.154
-0.143
-0.135
-0.13
-0.124
-0.116
-0.111
-0.111
-0.114
-0.117
-0.12
-0.124
-0.129
-0.135
-0.135
-0.133
-0.132
-0.129
-0.127
-0.122
-0.116
-0.114
-0.113
-0.114
-0.117
-0.118
-0.122
-0.126
-0.133
-0.136
-0.138
-0.14
-0.141
-0.14
-0.136
-0.131
-0.129
-0.127
-0.122
-0.122
-0.121
-0.124
-0.128
-0.133
-0.138
-0.143
-0.149
-0.155
-0.158
-0.159
-0.159
-0.156
-0.153
-0.147
-0.14
-0.135
-0.132
-0.13
-0.131
-0.132
-0.135
-0.138
-0.143
-0.147
-0.147
-0.145
-0.142
-0.14
-0.136
-0.128
-0.12
-0.116
-0.117
-0.119
-0.119
-0.122
-0.126
-0.136
-0.143
-0.148
-0.149
-0.151
-0.154
-0.153
-0.147
-0.139
-0.134
-0.132
-0.129
-0.125
-0.123
-0.127
-0.134
-0.141
-0.142
-0.146
-0.149
-0.154
-0.154
-0.148
-0.141
-0.136
-0.132
-0.127
-0.121
-0.116
-0.115
-0.119
-0.121
-0.124
-0.13
-0.136
-0.141
-0.142
-0.141
-0.14
-0.138
-0.134
-0.126
-0.12
-0.117
-0.116
-0.116
-0.113
-0.114
-0.12
-0.127
-0.132
-0.131
-0.135
-0.138
-0.141
-0.14
-0.133
-0.128
-0.124
-0.125
-0.12
-0.115
-0.113
-0.113
-0.119
-0.121
-0.12
-0.124
-0.131
-0.136
-0.137
-0.132
-0.132
-0.132
-0.127
-0.119
-0.108
-0.1
-0.096
-0.092
-0.09
-0.088
-0.09
-0.094
-0.099
-0.104
-0.107
-0.11
-0.113
-0.113
-0.11
-0.106
-0.101
-0.097
-0.092
-0.089
-0.087
-0.085
-0.087
-0.09
-0.093
-0.094
-0.092
-0.089
-0.083
-0.073
-0.06
-0.047
-0.031
-0.018
-0.003
0.01
0.021
0.028
0.034
0.038
0.041
0.047
0.048
0.053
0.061
0.073
0.086
0.099
0.114
0.133
0.153
0.168
0.18
0.192
0.206
0.218
0.223
0.229
0.237
0.25
0.261
0.269
0.278
0.289
0.304
0.316
0.323
0.33
0.338
0.344
0.346
0.341
0.335
0.331
0.327
0.322
0.312
0.305
0.302
0.301
0.3
0.296
0.293
0.293
0.293
0.289
0.28
0.269
0.262
0.25
0.232
0.21
0.189
0.172
0.155
0.138
0.12
0.108
0.101
0.094
0.089
0.079
0.071
0.065
0.056
0.044
0.028
0.015
0.003
-0.012
-0.027
-0.04
-0.047
-0.052
-0.057
-0.061
-0.063
-0.063
-0.06
-0.063
-0.066
-0.07
-0.073
-0.078
-0.086
-0.095
-0.099
-0.1
-0.101
-0.101
-0.101
-0.097
-0.09
-0.084
-0.083
-0.083
-0.082
-0.083
-0.088
-0.094
-0.105
-0.113
-0.121
-0.13
-0.137
-0.144
-0.149
-0.149
-0.15
-0.149
-0.152
-0.152
-0.15
-0.149
-0.146
-0.146
-0.144
-0.136
-0.119
-0.096
-0.072
-0.035
0.015
0.077
0.144
0.22
0.309
0.409
0.513
0.622
0.74
0.864
0.993
1.13
1.271
1.414
1.56
1.712
1.864
2.011
2.155
2.291
2.42
2.538
2.643
2.725
2.785
2.821
2.837
2.822
2.775
2.705
2.612
2.497
2.36
2.209
2.052
1.886
1.717
1.542
1.37
1.206
1.044
0.887
0.733
0.59
0.46
0.337
0.22
0.115
0.027
-0.048
-0.113
-0.168
-0.213
-0.244
-0.266
-0.282
-0.296
-0.306
-0.31
-0.31
-0.31
-0.312
-0.311
-0.306
-0.296
-0.287
-0.278
-0.266
-0.249
-0.229
-0.212
-0.196
-0.181
-0.166
-0.152
-0.144
-0.141
-0.138
-0.134
-0.13
-0.129
-0.131
-0.129
-0.122
-0.115
-0.107
-0.101
-0.091
-0.082
-0.074
-0.069
-0.064
-0.062
-0.062
-0.064
-0.067
-0.069
-0.069
-0.067
-0.065
-0.06
-0.053
-0.045
-0.035
-0.025
-0.017
-0.012
-0.008
-0.005
-0.004
-0.004
-0.006
-0.008
-0.009
-0.011
-0.01
-0.008
-0.004
0.005
0.012
0.019
0.026
0.033
0.042
0.047
0.052
0.054
0.053
0.053
0.05
0.047
0.041
0.039
0.04
0.043
0.045
0.05
0.061
0.073
0.084
0.089
0.094
0.1
0.105
0.106
0.102
0.098
0.097
0.099
0.101
0.103
0.107
0.118
0.128
0.137
0.145
0.154
0.166
0.173
0.177
0.177
0.177
0.182
0.185
0.188
0.189
0.192
0.201
0.211
0.221
0.23
0.239
0.251
0.257
0.261
0.261
0.264
0.268
0.267
0.265
0.264
0.268
0.275
0.284
0.291
0.3
0.313
0.327
0.339
0.348
0.355
0.362
0.369
0.372
0.371
0.373
0.379
0.385
0.389
0.392
0.401
0.416
0.43
0.444
0.454
0.466
0.48
0.492
0.5
0.504
0.509
0.517
0.521
0.525
0.527
0.535
0.547
0.557
0.567
0.575
0.59
0.607
0.623
0.638
0.647
0.659
0.672
0.68
0.686
0.688
0.692
0.698
0.703
0.708
0.716
0.727
0.741
0.754
0.766
0.779
0.791
0.803
0.811
0.818
0.82
0.822
0.822
0.822
0.824
0.826
0.829
0.834
0.841
0.848
0.857
0.866
0.873
0.879
0.879
0.878
0.876
0.873
0.869
0.862
0.855
0.851
0.846
0.845
0.842
0.84
0.84
0.837
0.833
0.825
0.815
0.803
0.789
0.772
0.749
0.728
0.708
0.691
0.673
0.653
0.636
0.625
0.616
0.603
0.587
0.57
0.557
0.538
0.513
0.486
0.46
0.437
0.412
0.384
0.358
0.337
0.32
0.3
0.281
0.262
0.244
0.228
0.21
0.187
0.165
0.145
0.122
0.098
0.071
0.048
0.029
0.009
-0.01
-0.032
-0.045
-0.057
-0.066
-0.075
-0.084
-0.091
-0.097
-0.106
-0.118
-0.132
-0.145
-0.156
-0.173
-0.189
-0.203
-0.211
-0.217
-0.224
-0.227
-0.23
-0.23
-0.227
-0.229
-0.229
-0.233
-0.238
-0.241
-0.249
-0.256
-0.263
-0.268
-0.271
-0.274
-0.276
-0.274
-0.271
-0.265
-0.26
-0.257
-0.256
-0.255
-0.255
-0.256
-0.261
-0.267
-0.27
-0.274
-0.276
-0.277
-0.278
-0.275
-0.271
-0.268
-0.265
-0.262
-0.26
-0.258
-0.257
-0.259
-0.262
-0.265
-0.268
-0.268
-0.269
-0.27
-0.268
-0.266
-0.262
-0.259
-0.255
-0.251
-0.247
-0.246
-0.248
-0.251
-0.252
-0.254
-0.255
-0.261
-0.265
-0.266
-0.265
-0.262
-0.261
-0.256
-0.249
-0.244
-0.241
-0.241
-0.239
-0.237
-0.239
-0.245
-0.252
-0.259
-0.261
-0.265
-0.271
-0.275
-0.278
-0.277
-0.272
-0.272
-0.268
-0.261
-0.253
-0.25
-0.251
-0.251
-0.249
-0.248
-0.252
-0.26
-0.266
-0.265
-0.265
-0.265
-0.266
-0.263
-0.254
-0.248
-0.244
-0.241
-0.236
-0.23
-0.23
-0.235
-0.242
-0.247
-0.249
-0.254
-0.255
-0.258
-0.257
-0.252
-0.248
-0.242
-0.239
-0.235
-0.232
-0.232
-0.235
-0.238
-0.242
-0.245
-0.249
-0.254
-0.256
-0.256
-0.253
-0.25
-0.247
-0.242
-0.238
-0.235
-0.234
-0.235
-0.236
-0.238
-0.241
-0.247
-0.252
-0.256
-0.257
-0.258
-0.257
-0.256
-0.254
-0.249
-0.244
-0.238
-0.234
-0.231
-0.228
-0.228
-0.226
-0.23
-0.233
-0.233
-0.234
-0.233
-0.235
-0.234
-0.229
-0.223
-0.217
-0.215
-0.211
-0.205
-0.201
-0.198
-0.201
-0.205
-0.207
-0.21
-0.213
-0.222
-0.226
-0.226
-0.224
-0.224
-0.224
-0.221
-0.212
-0.204
-0.201
-0.198
-0.198
-0.195
-0.196
-0.2
-0.207
-0.212
-0.213
-0.214
-0.217
-0.218
-0.216
-0.208
-0.203
-0.199
-0.196
-0.191
-0.188
-0.186
-0.191
-0.196
-0.198
-0.203
-0.207
-0.212
-0.211
-0.207
-0.201
-0.196
-0.191
-0.183
-0.174
-0.167
-0.166
-0.166
-0.166
-0.166
-0.17
-0.176
-0.184
-0.186
-0.187
-0.189
-0.19
-0.188
-0.183
-0.175
-0.169
-0.166
-0.167
-0.165
-0.164
-0.166
-0.174
-0.18
-0.185
-0.187
-0.19
-0.193
-0.191
-0.185
-0.176
-0.167
-0.158
-0.148
-0.137
-0.127
-0.12
-0.117
-0.113
-0.108
-0.105
-0.101
-0.1
-0.095
-0.087
-0.079
-0.068
-0.057
-0.044
-0.03
-0.018
-0.006
0.005
0.011
0.017
0.022
0.024
0.026
0.031
0.034
0.039
0.047
0.053
0.063
0.078
0.092
0.108
0.124
0.137
0.152
0.164
0.176
0.183
0.189
0.193
0.196
0.201
0.205
0.211
0.22
0.229
0.238
0.249
0.26
0.271
0.278
0.282
0.281
0.278
0.272
0.264
0.253
0.24
0.23
0.222
0.214
0.207
0.203
0.2
0.199
0.196
0.187
0.175
0.164
0.151
0.134
0.113
0.091
0.072
0.054
0.04
0.022
0.008
-0.002
-0.011
-0.02
-0.03
-0.041
-0.049
-0.057
-0.067
-0.08
-0.093
-0.105
-0.115
-0.123
-0.136
-0.143
-0.146
-0.147
-0.146
-0.149
-0.149
-0.146
-0.144
-0.145
-0.15
-0.153
-0.153
-0.158
-0.165
-0.17
-0.171
-0.17
-0.169
-0.17
-0.166
-0.162
-0.155
-0.15
-0.146
-0.142
-0.137
-0.136
-0.137
-0.145
-0.152
-0.159
-0.17
-0.182
-0.197
-0.206
-0.212
-0.218
-0.222
-0.224
-0.22
-0.21
-0.199
-0.188
-0.177
-0.162
-0.136
-0.109
-0.08
-0.046
0.003
0.066
0.133
0.21
0.3
0.405
0.52
0.64
0.769
0.903
1.041
1.183
1.327
1.471
1.614
1.755
1.896
2.032
2.164
2.29
2.406
2.512
2.606
2.685
2.741
2.767
2.775
2.758
2.707
2.628
2.526
2.406
2.268
2.115
1.954
1.787
1.618
1.449
1.279
1.116
0.959
0.808
0.662
0.523
0.393
0.273
0.162
0.061
-0.029
-0.107
-0.175
-0.233
-0.28
-0.318
-0.349
-0.37
-0.386
-0.395
-0.404
-0.409
-0.409
-0.407
-0.403
-0.405
-0.402
-0.396
-0.388
-0.378
-0.37
-0.357
-0.338
-0.319
-0.302
-0.284
-0.265
-0.244
-0.226
-0.214
-0.203
-0.193
-0.182
-0.174
-0.173
-0.175
-0.173
-0.169
-0.165
-0.162
-0.158
-0.152
-0.139
-0.131
-0.126
-0.122
-0.118
-0.115
-0.116
-0.122
-0.128
-0.129
-0.131
-0.132
-0.136
-0.133
-0.125
-0.115
-0.105
-0.097
-0.087
-0.076
-0.067
-0.064
-0.063
-0.06
-0.06
-0.062
-0.063
-0.063
-0.061
-0.056
-0.05
-0.042
-0.032
-0.019
-0.008
-0.001
0.006
0.008
0.01
0.012
0.008
0.004
0.001
0.001
0.005
0.009
0.013
0.021
0.032
0.044
0.055
0.063
0.072
0.079
0.084
0.084
0.082
0.081
0.08
0.08
0.079
0.079
0.082
0.089
0.096
0.104
0.111
0.119
0.128
0.137
0.144
0.149
0.151
0.154
0.157
0.161
0.163
0.166
0.171
0.179
0.187
0.195
0.204
0.216
0.228
0.238
0.244
0.252
0.259
0.266
0.27
0.27
0.267
0.266
0.268
0.272
0.272
0.277
0.287
0.297
0.307
0.317
0.326
0.337
0.346
0.351
0.354
0.357
0.362
0.366
0.37
0.374
0.381
0.394
0.408
0.42
0.435
0.452
0.47
0.485
0.495
0.505
0.516
0.525
0.529
0.531
0.537
0.548
0.557
0.567
0.578
0.593
0.612
0.629
0.644
0.656
0.67
0.686
0.696
0.702
0.704
0.709
0.716
0.722
0.727
0.731
0.739
0.752
0.763
0.774
0.782
0.791
0.8
0.806
0.808
0.809
0.81
0.811
0.812
0.809
0.809
0.812
0.816
0.82
0.824
0.831
0.837
0.844
0.848
0.851
0.853
0.852
0.85
0.845
0.84
0.834
0.828
0.821
0.814
0.81
0.804
0.801
0.795
0.791
0.785
0.778
0.769
0.757
0.745
0.73
0.711
0.69
0.667
0.644
0.621
0.599
0.579
0.559
0.542
0.524
0.509
0.494
0.476
0.459
0.435
0.413
0.389
0.364
0.34
0.312
0.288
0.267
0.249
0.232
0.216
0.203
0.193
0.184
0.17
0.154
0.137
0.119
0.1
0.077
0.05
0.025
0.006
-0.014
-0.034
-0.052
-0.065
-0.073
-0.08
-0.09
-0.099
-0.105
-0.112
-0.12
-0.134
-0.147
-0.158
-0.169
-0.179
-0.189
-0.199
-0.202
-0.204
-0.204
-0.205
-0.204
-0.201
-0.199
-0.199
-0.203
-0.206
-0.208
-0.212
-0.219
-0.228
-0.233
-0.236
-0.239
-0.24
-0.242
-0.239
-0.234
-0.23
-0.227
-0.226
-0.223
-0.219
-0.219
-0.223
-0.226
-0.228
-0.228
-0.23
-0.234
-0.235
-0.233
-0.23
-0.227
-0.223
-0.217
-0.21
-0.201
-0.197
-0.194
-0.193
-0.191
-0.193
-0.199
-0.207
-0.213
-0.217
-0.22
-0.223
-0.225
-0.224
-0.218
-0.212
-0.207
-0.204
-0.201
-0.199
-0.199
-0.201
-0.206
-0.211
-0.214
-0.217
-0.217
-0.219
-0.218
-0.212
-0.206
-0.198
-0.193
-0.189
-0.182
-0.177
-0.173
-0.175
-0.177
-0.176
-0.177
-0.179
-0.183
-0.182
-0.177
-0.171
-0.169
-0.165
-0.157
-0.148
-0.142
-0.141
-0.141
-0.141
-0.14
-0.141
-0.146
-0.15
-0.152
-0.152
-0.152
-0.155
-0.154
-0.15
-0.143
-0.14
-0.142
-0.142
-0.141
-0.139
-0.142
-0.149
-0.157
-0.161
-0.165
-0.17
-0.176
-0.18
-0.178
-0.175
-0.172
-0.17
-0.167
-0.161
-0.156
-0.157
-0.161
-0.165
-0.166
-0.169
-0.173
-0.184
-0.19
-0.191
-0.193
-0.194
-0.198
-0.196
-0.19
-0.184
-0.179
-0.178
-0.175
-0.171
-0.171
-0.176
-0.181
-0.185
-0.187
-0.189
-0.193
-0.195
-0.193
-0.185
-0.179
-0.173
-0.167
-0.16
-0.153
-0.15
-0.151
-0.153
-0.153
-0.157
-0.163
-0.168
-0.17
-0.168
-0.167
-0.165
-0.163
-0.156
-0.149
-0.145
-0.143
-0.143
-0.142
-0.142
-0.145
-0.149
-0.153
-0.156
-0.155
-0.154
-0.149
-0.143
-0.136
-0.126
-0.116
-0.107
-0.102
-0.097
-0.095
-0.097
-0.1
-0.106
-0.113
-0.119
-0.125
-0.132
-0.135
-0.137
-0.134
-0.131
-0.127
-0.123
-0.119
-0.113
-0.108
-0.104
-0.105
-0.105
-0.105
-0.104
-0.103
-0.101
-0.097
-0.092
-0.082
-0.074
-0.063
-0.05
-0.038
-0.026
-0.016
-0.009
-0.001
0.005
0.007
0.008
0.009
0.009
0.01
0.016
0.021
0.029
0.041
0.054
0.07
0.085
0.101
0.117
0.131
0.144
0.152
0.161
0.168
0.172
0.18
0.182
0.189
0.199
0.211
0.224
0.237
0.25
0.266
0.278
0.289
0.295
0.301
0.304
0.305
0.302
0.298
0.294
0.293
0.292
0.289
0.286
0.285
0.286
0.286
0.278
0.27
0.264
0.257
0.244
0.225
0.208
0.193
0.179
0.163
0.147
0.134
0.128
0.123
0.119
0.112
0.106
0.102
0.096
0.085
0.07
0.057
0.047
0.034
0.018
0.002
-0.009
-0.017
-0.024
-0.03
-0.038
-0.043
-0.046
-0.051
-0.057
-0.065
-0.073
-0.079
-0.089
-0.1
-0.11
-0.115
-0.119
-0.124
-0.128
-0.129
-0.127
-0.121
-0.118
-0.114
-0.108
-0.104
-0.101
-0.1
-0.101
-0.104
-0.106
-0.109
-0.113
-0.117
-0.119
-0.12
-0.122
-0.124
-0.126
-0.126
-0.125
-0.124
-0.127
-0.13
-0.135
-0.14
-0.145
-0.149
-0.154
-0.156
-0.151
-0.143
-0.131
-0.11
-0.08
-0.039
0.006
0.06
0.12
0.189
0.267
0.351
0.447
0.544
0.648
0.764
0.892
1.028
1.166
1.311
1.465
1.623
1.778
1.93
2.078
2.223
2.358
2.479
2.586
2.682
2.769
2.835
2.874
2.894
2.897
2.879
2.831
2.759
2.669
2.563
2.441
2.301
2.148
1.987
1.822
1.652
1.478
1.304
1.135
0.977
0.826
0.681
0.544
0.419
0.308
0.208
0.115
0.03
-0.044
-0.107
-0.164
-0.217
-0.265
-0.303
-0.332
-0.358
-0.379
-0.396
-0.401
-0.398
-0.393
-0.385
-0.375
-0.361
-0.343
-0.327
-0.316
-0.305
-0.293
-0.284
-0.278
-0.276
-0.271
-0.266
-0.258
-0.251
-0.243
-0.231
-0.217
-0.201
-0.185
-0.172
-0.16
-0.151
-0.142
-0.138
-0.138
-0.138
-0.139
-0.141
-0.144
-0.147
-0.144
-0.141
-0.136
-0.13
-0.123
-0.115
-0.107
-0.104
-0.102
-0.103
-0.106
-0.109
-0.116
-0.122
-0.128
-0.131
-0.132
-0.132
-0.126
-0.121
-0.112
-0.102
-0.094
-0.086
-0.08
-0.076
-0.074
-0.073
-0.074
-0.076
-0.076
-0.073
-0.069
-0.063
-0.056
-0.047
-0.033
-0.02
-0.009
-0.001
0.006
0.013
0.016
0.018
0.015
0.013
0.013
0.014
0.013
0.013
0.018
0.025
0.035
0.039
0.046
0.055
0.061
0.069
0.071
0.073
0.074
0.074
0.076
0.074
0.073
0.073
0.077
0.081
0.084
0.089
0.097
0.108
0.116
0.123
0.129
0.139
0.149
0.154
0.156
0.157
0.162
0.164
0.167
0.168
0.173
0.184
0.196
0.207
0.217
0.228
0.244
0.254
0.262
0.266
0.271
0.279
0.281
0.282
0.285
0.292
0.304
0.312
0.322
0.332
0.348
0.365
0.377
0.386
0.395
0.406
0.415
0.42
0.421
0.425
0.431
0.437
0.443
0.45
0.46
0.477
0.491
0.503
0.514
0.526
0.539
0.547
0.553
0.557
0.562
0.568
0.575
0.581
0.587
0.596
0.61
0.623
0.64
0.653
0.667
0.68
0.689
0.699
0.703
0.707
0.71
0.712
0.713
0.716
0.719
0.726
0.734
0.741
0.752
0.762
0.772
0.781
0.79
0.796
0.801
0.803
0.804
0.803
0.801
0.799
0.798
0.796
0.795
0.795
0.798
0.801
0.804
0.803
0.802
0.801
0.797
0.794
0.783
0.77
0.757
0.741
0.721
0.7
0.68
0.665
0.65
0.636
0.618
0.605
0.597
0.587
0.573
0.555
0.535
0.519
0.499
0.478
0.452
0.427
0.407
0.386
0.364
0.339
0.32
0.307
0.292
0.273
0.252
0.231
0.211
0.188
0.159
0.13
0.102
0.077
0.052
0.028
0.006
-0.011
-0.022
-0.033
-0.043
-0.052
-0.057
-0.064
-0.075
-0.089
-0.103
-0.117
-0.133
-0.15
-0.167
-0.18
-0.19
-0.2
-0.206
-0.212
-0.213
-0.215
-0.218
-0.223
-0.228
-0.234
-0.239
-0.246
-0.256
-0.265
-0.271
-0.276
-0.281
-0.284
-0.286
-0.285
-0.282
-0.279
-0.275
-0.272
-0.268
-0.264
-0.265
-0.266
-0.268
-0.271
-0.272
-0.276
-0.28
-0.282
-0.283
-0.28
-0.276
-0.272
-0.267
-0.261
-0.252
-0.244
-0.24
-0.237
-0.236
-0.234
-0.236
-0.242
-0.248
-0.252
-0.25
-0.248
-0.249
-0.245
-0.236
-0.223
-0.212
-0.205
-0.201
-0.195
-0.191
-0.19
-0.195
-0.2
-0.203
-0.206
-0.209
-0.212
-0.21
-0.205
-0.198
-0.193
-0.188
-0.181
-0.173
-0.167
-0.163
-0.166
-0.169
-0.168
-0.171
-0.174
-0.179
-0.182
-0.179
-0.178
-0.177
-0.173
-0.168
-0.159
-0.155
-0.155
-0.155
-0.154
-0.152
-0.155
-0.16
-0.162
-0.162
-0.16
-0.157
-0.155
-0.148
-0.136
-0.126
-0.119
-0.113
-0.108
-0.103
-0.1
-0.101
-0.106
-0.11
-0.111
-0.114
-0.117
-0.12
-0.118
-0.112
-0.106
-0.101
-0.097
-0.091
-0.085
-0.082
-0.083
-0.085
-0.086
-0.087
-0.092
-0.099
-0.107
-0.113
-0.115
-0.118
-0.119
-0.12
-0.118
-0.111
-0.104
-0.094
-0.087
-0.081
-0.075
-0.072
-0.073
-0.078
-0.084
-0.09
-0.095
-0.099
-0.104
-0.106
-0.102
-0.097
-0.092
-0.088
-0.084
-0.078
-0.074
-0.073
-0.076
-0.08
-0.085
-0.091
-0.099
-0.103
-0.105
-0.105
-0.101
-0.098
-0.091
-0.08
-0.07
-0.062
-0.059
-0.058
-0.058
-0.06
-0.065
-0.075
-0.083
-0.087
-0.09
-0.093
-0.096
-0.093
-0.086
-0.078
-0.071
-0.068
-0.065
-0.061
-0.058
-0.056
-0.063
-0.068
-0.067
-0.066
-0.065
-0.065
-0.059
-0.047
-0.035
-0.025
-0.016
-0.004
0.012
0.025
0.032
0.037
0.042
0.049
0.054
0.057
0.059
0.063
0.072
0.079
0.086
0.095
0.11
0.125
0.139
0.148
0.16
0.174
0.187
0.195
0.201
0.209
0.22
0.229
0.237
0.244
0.254
0.266
0.276
0.287
0.299
0.313
0.327
0.336
0.344
0.349
0.353
0.356
0.353
0.351
0.345
0.342
0.339
0.338
0.341
0.339
0.341
0.343
0.343
0.34
0.335
0.326
0.315
0.299
0.277
0.256
0.235
0.218
0.201
0.185
0.17
0.159
0.151
0.145
0.136
0.125
0.114
0.103
0.09
0.076
0.06
0.046
0.032
0.02
0.008
-0.001
-0.007
-0.009
-0.008
-0.009
-0.011
-0.009
-0.009
-0.011
-0.017
-0.024
-0.03
-0.036
-0.043
-0.052
-0.059
-0.061
-0.062
-0.061
-0.06
-0.056
-0.048
-0.044
-0.043
-0.045
-0.046
-0.045
-0.048
-0.056
-0.064
-0.069
-0.072
-0.075
-0.079
-0.083
-0.083
-0.078
-0.077
-0.08
-0.084
-0.085
-0.088
-0.094
-0.103
-0.112
-0.118
-0.124
-0.13
-0.137
-0.137
-0.128
-0.117
-0.101
-0.079
-0.044
0
0.048
0.107
0.17
0.244
0.322
0.408
0.503
0.604
0.713
0.832
0.963
1.097
1.239
1.387
1.543
1.701
1.857
2.01
2.157
2.299
2.432
2.551
2.655
2.746
2.826
2.881
2.919
2.935
2.932
2.904
2.849
2.779
2.688
2.578
2.45
2.307
2.156
1.992
1.822
1.653
1.482
1.313
1.147
0.988
0.841
0.703
0.573
0.452
0.342
0.243
0.153
0.067
-0.012
-0.08
-0.141
-0.197
-0.25
-0.293
-0.325
-0.351
-0.371
-0.387
-0.392
-0.387
-0.379
-0.369
-0.361
-0.348
-0.332
-0.317
-0.308
-0.303
-0.296
-0.285
-0.277
-0.272
-0.269
-0.261
-0.246
-0.233
-0.22
-0.212
-0.198
-0.18
-0.167
-0.156
-0.154
-0.149
-0.144
-0.141
-0.144
-0.148
-0.148
-0.145
-0.142
-0.141
-0.137
-0.129
-0.115
-0.104
-0.094
-0.086
-0.078
-0.07
-0.065
-0.066
-0.068
-0.07
-0.071
-0.072
-0.073
-0.069
-0.062
-0.054
-0.044
-0.035
-0.023
-0.012
-0.005
0
0
0.001
-0.002
-0.007
-0.013
-0.019
-0.021
-0.02
-0.018
-0.014
-0.006
0.006
0.02
0.032
0.042
0.051
0.058
0.065
0.065
0.066
0.063
0.062
0.062
0.062
0.065
0.067
0.072
0.08
0.09
0.1
0.106
0.113
0.121
0.128
0.133
0.134
0.135
0.14
0.146
0.15
0.155
0.163
0.175
0.188
0.2
0.21
0.22
0.231
0.24
0.244
0.246
0.249
0.252
0.255
0.256
0.257
0.263
0.27
0.278
0.284
0.291
0.302
0.312
0.323
0.331
0.338
0.347
0.355
0.358
0.358
0.36
0.363
0.365
0.366
0.365
0.369
0.376
0.384
0.393
0.402
0.413
0.427
0.438
0.447
0.457
0.467
0.478
0.482
0.487
0.496
0.506
0.518
0.529
0.544
0.559
0.574
0.593
0.608
0.621
0.635
0.646
0.655
0.662
0.667
0.673
0.679
0.685
0.693
0.701
0.713
0.729
0.744
0.76
0.776
0.791
0.806
0.817
0.825
0.831
0.833
0.835
0.836
0.837
0.839
0.84
0.845
0.851
0.858
0.865
0.871
0.879
0.884
0.89
0.891
0.892
0.892
0.893
0.895
0.893
0.894
0.897
0.9
0.901
0.901
0.903
0.904
0.903
0.896
0.886
0.876
0.865
0.851
0.832
0.81
0.789
0.772
0.754
0.736
0.718
0.703
0.691
0.679
0.663
0.649
0.638
0.624
0.607
0.585
0.563
0.541
0.518
0.491
0.46
0.432
0.408
0.386
0.365
0.343
0.326
0.312
0.298
0.281
0.263
0.249
0.235
0.216
0.194
0.171
0.151
0.132
0.111
0.091
0.069
0.051
0.036
0.022
0.009
-0.006
-0.021
-0.034
-0.049
-0.067
-0.084
-0.101
-0.116
-0.132
-0.147
-0.158
-0.166
-0.171
-0.176
-0.18
-0.181
-0.184
-0.186
-0.191
-0.198
-0.204
-0.21
-0.215
-0.222
-0.227
-0.229
-0.23
-0.231
-0.229
-0.229
-0.225
-0.22
-0.218
-0.216
-0.217
-0.218
-0.219
-0.221
-0.226
-0.234
-0.242
-0.246
-0.25
-0.252
-0.254
-0.252
-0.245
-0.235
-0.226
-0.219
-0.211
-0.201
-0.192
-0.189
-0.191
-0.191
-0.189
-0.187
-0.187
-0.191
-0.188
-0.18
-0.17
-0.162
-0.156
-0.15
-0.14
-0.134
-0.133
-0.134
-0.135
-0.135
-0.139
-0.147
-0.16
-0.169
-0.173
-0.178
-0.185
-0.189
-0.189
-0.183
-0.178
-0.176
-0.174
-0.17
-0.168
-0.171
-0.178
-0.183
-0.187
-0.189
-0.191
-0.195
-0.192
-0.185
-0.177
-0.168
-0.161
-0.15
-0.139
-0.133
-0.13
-0.13
-0.129
-0.13
-0.135
-0.141
-0.15
-0.153
-0.154
-0.155
-0.155
-0.156
-0.152
-0.147
-0.143
-0.142
-0.141
-0.139
-0.136
-0.139
-0.143
-0.147
-0.149
-0.151
-0.156
-0.162
-0.165
-0.165
-0.163
-0.162
-0.162
-0.161
-0.159
-0.156
-0.155
-0.158
-0.16
-0.163
-0.167
-0.173
-0.179
-0.182
-0.183
-0.183
-0.18
-0.176
-0.172
-0.167
-0.161
-0.158
-0.156
-0.157
-0.16
-0.163
-0.166
-0.169
-0.171
-0.172
-0.172
-0.172
-0.17
-0.168
-0.164
-0.162
-0.16
-0.16
-0.159
-0.16
-0.162
-0.165
-0.172
-0.179
-0.186
-0.193
-0.198
-0.203
-0.206
-0.205
-0.2
-0.195
-0.187
-0.18
-0.17
-0.161
-0.156
-0.153
-0.152
-0.149
-0.15
-0.154
-0.158
-0.157
-0.154
-0.151
-0.146
-0.138
-0.124
-0.111
-0.1
-0.094
-0.088
-0.08
-0.073
-0.07
-0.071
-0.07
-0.063
-0.053
-0.043
-0.033
-0.019
-0.001
0.018
0.033
0.046
0.056
0.069
0.076
0.08
0.078
0.077
0.079
0.082
0.084
0.085
0.094
0.107
0.122
0.137
0.152
0.167
0.182
0.194
0.2
0.206
0.207
0.206
0.2
0.192
0.184
0.177
0.172
0.164
0.158
0.152
0.147
0.142
0.137
0.13
0.123
0.113
0.101
0.086
0.069
0.052
0.035
0.017
-0.002
-0.02
-0.035
-0.049
-0.059
-0.068
-0.075
-0.081
-0.087
-0.094
-0.102
-0.112
-0.122
-0.134
-0.15
-0.167
-0.184
-0.197
-0.207
-0.215
-0.22
-0.226
-0.227
-0.226
-0.222
-0.219
-0.219
-0.22
-0.22
-0.221
-0.227
-0.236
-0.243
-0.246
-0.249
-0.254
-0.259
-0.258
-0.253
-0.248
-0.245
-0.246
-0.246
-0.243
-0.245
-0.251
-0.261
-0.272
-0.281
-0.29
-0.302
-0.31
-0.317
-0.32
-0.323
-0.329
-0.332
-0.331
-0.329
-0.329
-0.331
-0.33
-0.328
-0.324
-0.319
-0.311
-0.299
-0.28
-0.255
-0.224
-0.185
-0.136
-0.073
-0.003
0.075
0.157
0.249
0.353
0.459
0.57
0.687
0.816
0.952
1.09
1.232
1.38
1.531
1.682
1.829
1.97
2.106
2.236
2.357
2.459
2.545
2.621
2.673
2.7
2.7
2.681
2.639
2.572
2.484
2.377
2.254
2.12
1.977
1.827
1.671
1.507
1.345
1.185
1.023
0.863
0.706
0.556
0.414
0.281
0.16
0.048
-0.052
-0.14
-0.215
-0.278
-0.335
-0.384
-0.425
-0.459
-0.489
-0.517
-0.541
-0.558
-0.571
-0.579
-0.586
-0.587
-0.582
-0.573
-0.559
-0.548
-0.533
-0.516
-0.498
-0.485
-0.476
-0.468
-0.458
-0.452
-0.449
-0.446
-0.442
-0.434
-0.426
-0.418
-0.41
-0.4
-0.386
-0.375
-0.368
-0.363
-0.359
-0.354
-0.353
-0.357
-0.363
-0.362
-0.362
-0.361
-0.362
-0.357
-0.345
-0.333
-0.323
-0.316
-0.308
-0.298
-0.291
-0.287
-0.29
-0.29
-0.29
-0.291
-0.293
-0.296
-0.294
-0.289
-0.283
-0.278
-0.272
-0.263
-0.253
-0.245
-0.241
-0.24
-0.237
-0.234
-0.234
-0.236
-0.24
-0.242
-0.241
-0.241
-0.24
-0.238
-0.231
-0.22
-0.21
-0.201
-0.19
-0.179
-0.169
-0.164
-0.161
-0.16
-0.162
-0.162
-0.164
-0.163
-0.161
-0.157
-0.151
-0.142
-0.132
-0.119
-0.106
-0.095
-0.085
-0.079
-0.075
-0.071
-0.067
-0.064
-0.065
-0.063
-0.061
-0.055
-0.047
-0.04
-0.032
-0.02
-0.008
0
0.004
0.008
0.013
0.015
0.015
0.01
0.007
0.01
0.014
0.021
0.026
0.034
0.047
0.061
0.074
0.084
0.095
0.108
0.119
0.124
0.126
0.129
0.134
0.141
0.144
0.149
0.157
0.171
0.185
0.198
0.212
0.227
0.244
0.257
0.264
0.272
0.282
0.29
0.295
0.298
0.304
0.313
0.322
0.332
0.341
0.355
0.372
0.386
0.4
0.413
0.429
0.444
0.456
0.466
0.473
0.483
0.494
0.502
0.51
0.515
0.525
0.535
0.545
0.557
0.567
0.583
0.596
0.607
0.616
0.623
0.631
0.636
0.639
0.637
0.637
0.64
0.644
0.647
0.65
0.655
0.661
0.67
0.676
0.68
0.682
0.681
0.679
0.675
0.669
0.66
0.652
0.646
0.641
0.635
0.63
0.628
0.627
0.627
0.622
0.615
0.608
0.598
0.586
0.569
0.548
0.526
0.503
0.48
0.457
0.434
0.414
0.396
0.379
0.363
0.346
0.331
0.312
0.295
0.272
0.248
0.224
0.198
0.172
0.142
0.116
0.092
0.072
0.052
0.029
0.01
-0.006
-0.022
-0.041
-0.06
-0.08
-0.097
-0.116
-0.141
-0.165
-0.186
-0.202
-0.219
-0.237
-0.253
-0.264
-0.271
-0.279
-0.288
-0.295
-0.299
-0.302
-0.309
-0.319
-0.329
-0.337
-0.345
-0.357
-0.372
-0.384
-0.392
-0.399
-0.406
-0.415
-0.419
-0.419
-0.418
-0.419
-0.423
-0.426
-0.427
-0.431
-0.438
-0.447
-0.454
-0.456
-0.459
-0.462
-0.466
-0.462
-0.456
-0.45
-0.441
-0.436
-0.429
-0.423
-0.42
-0.42
-0.421
-0.425
-0.428
-0.432
-0.437
-0.439
-0.441
-0.439
-0.437
-0.433
-0.428
-0.423
-0.418
-0.416
-0.416
-0.416
-0.417
-0.42
-0.425
-0.43
-0.436
-0.438
-0.441
-0.441
-0.441
-0.438
-0.431
-0.426
-0.421
-0.417
-0.411
-0.405
-0.403
-0.402
-0.404
-0.404
-0.403
-0.402
-0.4
-0.398
-0.394
-0.388
-0.383
-0.377
-0.373
-0.368
-0.363
-0.361
-0.36
-0.363
-0.367
-0.367
-0.37
-0.371
-0.377
-0.381
-0.381
-0.379
-0.376
-0.375
-0.372
-0.365
-0.356
-0.352
-0.348
-0.343
-0.338
-0.336
-0.337
-0.342
-0.347
-0.35
-0.352
-0.355
-0.359
-0.359
-0.354
-0.347
-0.343
-0.337
-0.332
-0.326
-0.322
-0.322
-0.326
-0.329
-0.332
-0.336
-0.342
-0.346
-0.347
-0.346
-0.343
-0.343
-0.34
-0.335
-0.329
-0.328
-0.328
-0.332
-0.333
-0.335
-0.341
-0.348
-0.353
-0.351
-0.35
-0.349
-0.348
-0.343
-0.334
-0.328
-0.326
-0.329
-0.327
-0.325
-0.329
-0.334
-0.344
-0.348
-0.348
-0.35
-0.354
-0.355
-0.352
-0.345
-0.339
-0.337
-0.333
-0.329
-0.325
-0.325
-0.33
-0.334
-0.336
-0.339
-0.343
-0.348
-0.348
-0.345
-0.341
-0.338
-0.333
-0.326
-0.318
-0.313
-0.309
-0.305
-0.304
-0.304
-0.306
-0.308
-0.311
-0.314
-0.314
-0.315
-0.311
-0.31
-0.304
-0.294
-0.286
-0.276
-0.269
-0.261
-0.253
-0.245
-0.237
-0.234
-0.232
-0.229
-0.229
-0.226
-0.225
-0.223
-0.215
-0.21
-0.202
-0.194
-0.185
-0.173
-0.163
-0.154
-0.147
-0.14
-0.133
-0.126
-0.121
-0.116
-0.11
-0.099
-0.088
-0.077
-0.064
-0.046
-0.026
-0.008
0.003
0.014
0.028
0.042
0.05
0.053
0.056
0.063
0.072
0.08
0.085
0.093
0.106
0.118
0.13
0.136
0.141
0.147
0.148
0.143
0.132
0.121
0.112
0.101
0.087
0.071
0.059
0.054
0.048
0.043
0.035
0.028
0.023
0.016
0.003
-0.013
-0.029
-0.044
-0.063
-0.085
-0.104
-0.119
-0.132
-0.146
-0.158
-0.168
-0.173
-0.18
-0.188
-0.196
-0.202
-0.21
-0.22
-0.232
-0.247
-0.257
-0.267
-0.277
-0.287
-0.297
-0.301
-0.302
-0.302
-0.302
-0.301
-0.296
-0.292
-0.289
-0.288
-0.288
-0.289
-0.291
-0.296
-0.304
-0.312
-0.319
-0.322
-0.327
-0.33
-0.333
-0.331
-0.325
-0.32
-0.316
-0.317
-0.317
-0.319
-0.324
-0.331
-0.343
-0.355
-0.365
-0.374
-0.382
-0.389
-0.392
-0.389
-0.382
-0.377
-0.37
-0.361
-0.348
-0.334
-0.321
-0.307
-0.288
-0.261
-0.225
-0.181
-0.128
-0.063
0.019
0.112
0.21
0.32
0.446
0.578
0.715
0.852
0.998
1.153
1.31
1.467
1.622
1.78
1.941
2.1
2.251
2.392
2.526
2.654
2.759
2.837
2.893
2.929
2.937
2.907
2.846
2.758
2.646
2.517
2.366
2.204
2.026
1.847
1.666
1.482
1.299
1.119
0.949
0.789
0.634
0.487
0.351
0.228
0.119
0.017
-0.073
-0.152
-0.219
-0.273
-0.318
-0.354
-0.384
-0.405
-0.42
-0.429
-0.436
-0.441
-0.441
-0.44
-0.439
-0.44
-0.44
-0.438
-0.435
-0.43
-0.423
-0.415
-0.404
-0.391
-0.377
-0.364
-0.353
-0.343
-0.334
-0.327
-0.324
-0.324
-0.325
-0.326
-0.327
-0.329
-0.33
-0.327
-0.32
-0.313
-0.308
-0.3
-0.29
-0.278
-0.271
-0.269
-0.268
-0.264
-0.263
-0.265
-0.269
-0.271
-0.268
-0.263
-0.262
-0.258
-0.251
-0.239
-0.23
-0.225
-0.221
-0.218
-0.21
-0.21
-0.212
-0.216
-0.217
-0.213
-0.212
-0.211
-0.208
-0.198
-0.188
-0.178
-0.173
-0.167
-0.157
-0.148
-0.145
-0.146
-0.147
-0.145
-0.145
-0.145
-0.147
-0.146
-0.141
-0.135
-0.128
-0.122
-0.11
-0.098
-0.089
-0.082
-0.079
-0.073
-0.068
-0.066
-0.066
-0.07
-0.071
-0.07
-0.069
-0.066
-0.063
-0.055
-0.045
-0.036
-0.026
-0.013
0
0.013
0.021
0.026
0.031
0.035
0.039
0.038
0.037
0.039
0.042
0.047
0.053
0.061
0.072
0.085
0.095
0.104
0.11
0.118
0.126
0.126
0.126
0.124
0.127
0.133
0.14
0.149
0.159
0.173
0.19
0.208
0.225
0.239
0.251
0.262
0.272
0.28
0.285
0.29
0.297
0.307
0.317
0.326
0.339
0.356
0.375
0.396
0.41
0.425
0.442
0.457
0.47
0.478
0.484
0.493
0.502
0.51
0.52
0.53
0.544
0.562
0.577
0.592
0.611
0.628
0.645
0.657
0.666
0.674
0.684
0.691
0.695
0.699
0.704
0.714
0.725
0.733
0.745
0.762
0.778
0.791
0.801
0.812
0.825
0.833
0.837
0.836
0.839
0.841
0.843
0.841
0.839
0.84
0.842
0.844
0.845
0.848
0.852
0.859
0.861
0.861
0.857
0.855
0.851
0.841
0.83
0.813
0.8
0.789
0.777
0.763
0.751
0.741
0.733
0.722
0.708
0.693
0.677
0.66
0.637
0.61
0.584
0.557
0.531
0.504
0.477
0.453
0.43
0.41
0.391
0.371
0.351
0.33
0.308
0.284
0.258
0.229
0.201
0.171
0.142
0.113
0.086
0.062
0.04
0.021
0.002
-0.015
-0.03
-0.045
-0.06
-0.077
-0.096
-0.113
-0.133
-0.15
-0.171
-0.188
-0.204
-0.217
-0.227
-0.239
-0.246
-0.252
-0.258
-0.262
-0.272
-0.279
-0.287
-0.296
-0.306
-0.319
-0.33
-0.337
-0.344
-0.352
-0.358
-0.361
-0.36
-0.357
-0.356
-0.355
-0.354
-0.35
-0.349
-0.354
-0.358
-0.362
-0.363
-0.368
-0.377
-0.382
-0.383
-0.381
-0.38
-0.381
-0.377
-0.368
-0.359
-0.35
-0.346
-0.343
-0.338
-0.335
-0.337
-0.343
-0.348
-0.351
-0.353
-0.357
-0.36
-0.359
-0.351
-0.345
-0.336
-0.332
-0.326
-0.318
-0.312
-0.309
-0.312
-0.312
-0.312
-0.315
-0.317
-0.319
-0.316
-0.31
-0.306
-0.302
-0.296
-0.287
-0.278
-0.272
-0.27
-0.268
-0.268
-0.268
-0.271
-0.275
-0.278
-0.279
-0.278
-0.278
-0.275
-0.267
-0.258
-0.248
-0.241
-0.237
-0.232
-0.227
-0.225
-0.227
-0.231
-0.235
-0.237
-0.241
-0.243
-0.244
-0.243
-0.239
-0.235
-0.231
-0.226
-0.221
-0.215
-0.212
-0.211
-0.213
-0.214
-0.216
-0.218
-0.218
-0.223
-0.224
-0.224
-0.221
-0.215
-0.211
-0.206
-0.199
-0.191
-0.187
-0.187
-0.187
-0.186
-0.186
-0.192
-0.198
-0.203
-0.204
-0.204
-0.207
-0.21
-0.21
-0.204
-0.198
-0.192
-0.187
-0.182
-0.176
-0.175
-0.178
-0.183
-0.186
-0.189
-0.195
-0.203
-0.208
-0.208
-0.206
-0.202
-0.2
-0.196
-0.189
-0.182
-0.178
-0.177
-0.177
-0.177
-0.178
-0.184
-0.193
-0.198
-0.196
-0.196
-0.196
-0.197
-0.193
-0.184
-0.177
-0.172
-0.17
-0.167
-0.165
-0.165
-0.169
-0.175
-0.178
-0.179
-0.184
-0.188
-0.19
-0.19
-0.184
-0.181
-0.179
-0.175
-0.172
-0.168
-0.167
-0.168
-0.17
-0.173
-0.176
-0.18
-0.184
-0.185
-0.184
-0.183
-0.181
-0.18
-0.173
-0.168
-0.164
-0.162
-0.162
-0.163
-0.164
-0.167
-0.171
-0.176
-0.18
-0.183
-0.185
-0.186
-0.184
-0.181
-0.175
-0.168
-0.159
-0.151
-0.142
-0.131
-0.119
-0.109
-0.104
-0.1
-0.093
-0.088
-0.082
-0.08
-0.075
-0.066
-0.056
-0.044
-0.032
-0.016
0.003
0.019
0.03
0.037
0.044
0.054
0.061
0.062
0.064
0.068
0.077
0.088
0.099
0.111
0.125
0.145
0.161
0.175
0.187
0.2
0.213
0.221
0.221
0.222
0.224
0.229
0.235
0.239
0.245
0.255
0.267
0.28
0.29
0.3
0.309
0.318
0.322
0.319
0.314
0.31
0.304
0.296
0.285
0.276
0.272
0.269
0.266
0.26
0.257
0.253
0.247
0.237
0.221
0.206
0.191
0.172
0.15
0.126
0.106
0.091
0.076
0.059
0.045
0.035
0.029
0.02
0.008
-0.003
-0.013
-0.022
-0.035
-0.053
-0.068
-0.081
-0.092
-0.104
-0.118
-0.127
-0.131
-0.135
-0.138
-0.142
-0.142
-0.139
-0.139
-0.141
-0.144
-0.145
-0.148
-0.155
-0.162
-0.171
-0.179
-0.185
-0.189
-0.193
-0.195
-0.194
-0.189
-0.183
-0.176
-0.173
-0.169
-0.165
-0.164
-0.166
-0.172
-0.18
-0.188
-0.195
-0.202
-0.212
-0.219
-0.224
-0.227
-0.229
-0.233
-0.235
-0.237
-0.239
-0.242
-0.244
-0.245
-0.242
-0.235
-0.222
-0.203
-0.177
-0.139
-0.086
-0.025
0.045
0.127
0.225
0.329
0.437
0.554
0.684
0.82
0.96
1.104
1.262
1.429
1.6
1.772
1.944
2.118
2.293
2.461
2.613
2.748
2.872
2.977
3.047
3.09
3.108
3.1
3.059
2.987
2.889
2.765
2.626
2.471
2.302
2.124
1.935
1.745
1.559
1.373
1.191
1.016
0.851
0.7
0.558
0.427
0.31
0.208
0.122
0.043
-0.024
-0.079
-0.124
-0.156
-0.185
-0.208
-0.226
-0.241
-0.252
-0.261
-0.271
-0.281
-0.289
-0.297
-0.301
-0.305
-0.305
-0.301
-0.295
-0.287
-0.278
-0.268
-0.258
-0.249
-0.24
-0.236
-0.233
-0.232
-0.231
-0.23
-0.231
-0.23
-0.228
-0.224
-0.219
-0.213
-0.206
-0.198
-0.191
-0.184
-0.184
-0.182
-0.181
-0.182
-0.183
-0.19
-0.194
-0.191
-0.189
-0.184
-0.181
-0.174
-0.165
-0.155
-0.15
-0.145
-0.141
-0.137
-0.134
-0.137
-0.143
-0.146
-0.145
-0.143
-0.144
-0.143
-0.138
-0.126
-0.115
-0.107
-0.099
-0.089
-0.08
-0.074
-0.075
-0.075
-0.076
-0.074
-0.074
-0.077
-0.077
-0.074
-0.067
-0.06
-0.054
-0.045
-0.034
-0.024
-0.016
-0.012
-0.008
-0.001
0.002
0.003
0.001
0.002
0.005
0.005
0.008
0.009
0.017
0.028
0.037
0.047
0.056
0.068
0.077
0.085
0.09
0.095
0.099
0.101
0.1
0.098
0.099
0.102
0.107
0.113
0.122
0.133
0.146
0.159
0.17
0.18
0.189
0.197
0.204
0.208
0.209
0.212
0.216
0.222
0.227
0.233
0.244
0.258
0.271
0.284
0.296
0.307
0.316
0.323
0.33
0.334
0.335
0.341
0.345
0.351
0.358
0.367
0.382
0.396
0.413
0.427
0.44
0.455
0.469
0.483
0.49
0.496
0.503
0.511
0.519
0.526
0.536
0.55
0.567
0.581
0.596
0.613
0.633
0.65
0.663
0.675
0.684
0.695
0.703
0.709
0.713
0.72
0.729
0.738
0.745
0.754
0.767
0.782
0.795
0.803
0.813
0.825
0.836
0.843
0.847
0.85
0.856
0.86
0.862
0.862
0.865
0.871
0.877
0.881
0.885
0.893
0.903
0.911
0.915
0.916
0.917
0.919
0.914
0.906
0.895
0.886
0.879
0.868
0.86
0.851
0.844
0.839
0.835
0.826
0.815
0.804
0.793
0.776
0.754
0.731
0.704
0.681
0.654
0.629
0.604
0.581
0.56
0.539
0.52
0.502
0.482
0.463
0.439
0.415
0.387
0.361
0.331
0.302
0.272
0.243
0.218
0.194
0.174
0.155
0.137
0.12
0.104
0.088
0.069
0.049
0.029
0.008
-0.014
-0.037
-0.058
-0.075
-0.089
-0.104
-0.118
-0.129
-0.132
-0.136
-0.143
-0.154
-0.163
-0.17
-0.18
-0.191
-0.209
-0.224
-0.234
-0.245
-0.257
-0.268
-0.275
-0.275
-0.277
-0.281
-0.284
-0.285
-0.282
-0.283
-0.287
-0.296
-0.303
-0.307
-0.313
-0.321
-0.329
-0.333
-0.334
-0.335
-0.337
-0.335
-0.326
-0.318
-0.309
-0.305
-0.297
-0.289
-0.283
-0.282
-0.285
-0.289
-0.293
-0.298
-0.304
-0.308
-0.308
-0.306
-0.302
-0.299
-0.294
-0.286
-0.278
-0.274
-0.273
-0.274
-0.275
-0.276
-0.28
-0.284
-0.288
-0.289
-0.288
-0.286
-0.281
-0.275
-0.265
-0.255
-0.248
-0.245
-0.24
-0.237
-0.236
-0.238
-0.243
-0.246
-0.248
-0.246
-0.246
-0.244
-0.24
-0.233
-0.225
-0.217
-0.211
-0.207
-0.203
-0.201
-0.199
-0.202
-0.205
-0.208
-0.21
-0.209
-0.21
-0.209
-0.206
-0.2
-0.192
-0.187
-0.183
-0.18
-0.177
-0.176
-0.179
-0.183
-0.185
-0.19
-0.194
-0.2
-0.204
-0.203
-0.202
-0.199
-0.198
-0.196
-0.19
-0.184
-0.178
-0.178
-0.178
-0.177
-0.177
-0.179
-0.185
-0.188
-0.19
-0.19
-0.192
-0.194
-0.194
-0.188
-0.18
-0.175
-0.168
-0.163
-0.154
-0.149
-0.148
-0.15
-0.152
-0.152
-0.158
-0.165
-0.171
-0.173
-0.172
-0.172
-0.173
-0.169
-0.161
-0.154
-0.149
-0.149
-0.148
-0.147
-0.148
-0.155
-0.163
-0.17
-0.172
-0.176
-0.18
-0.183
-0.181
-0.174
-0.17
-0.166
-0.166
-0.163
-0.158
-0.159
-0.16
-0.168
-0.172
-0.174
-0.178
-0.182
-0.184
-0.183
-0.178
-0.175
-0.17
-0.165
-0.16
-0.155
-0.154
-0.156
-0.156
-0.159
-0.163
-0.168
-0.171
-0.173
-0.173
-0.173
-0.171
-0.167
-0.161
-0.156
-0.153
-0.152
-0.154
-0.156
-0.157
-0.161
-0.167
-0.174
-0.178
-0.181
-0.184
-0.184
-0.184
-0.183
-0.178
-0.173
-0.168
-0.164
-0.159
-0.154
-0.15
-0.149
-0.151
-0.153
-0.153
-0.152
-0.155
-0.16
-0.161
-0.158
-0.154
-0.149
-0.148
-0.142
-0.131
-0.123
-0.119
-0.118
-0.117
-0.113
-0.114
-0.121
-0.13
-0.133
-0.132
-0.134
-0.138
-0.139
-0.134
-0.126
-0.12
-0.116
-0.113
-0.109
-0.106
-0.106
-0.113
-0.119
-0.122
-0.126
-0.131
-0.137
-0.138
-0.134
-0.13
-0.125
-0.124
-0.118
-0.111
-0.107
-0.107
-0.111
-0.114
-0.116
-0.121
-0.128
-0.133
-0.134
-0.132
-0.13
-0.128
-0.127
-0.119
-0.11
-0.105
-0.103
-0.105
-0.105
-0.106
-0.111
-0.117
-0.124
-0.129
-0.13
-0.134
-0.135
-0.134
-0.129
-0.121
-0.116
-0.111
-0.107
-0.102
-0.098
-0.097
-0.097
-0.099
-0.101
-0.103
-0.103
-0.104
-0.103
-0.1
-0.096
-0.09
-0.084
-0.078
-0.07
-0.064
-0.059
-0.057
-0.055
-0.053
-0.053
-0.054
-0.059
-0.065
-0.07
-0.071
-0.074
-0.077
-0.078
-0.073
-0.066
-0.059
-0.055
-0.05
-0.042
-0.037
-0.037
-0.044
-0.049
-0.051
-0.054
-0.058
-0.064
-0.066
-0.063
-0.059
-0.054
-0.052
-0.047
-0.042
-0.04
-0.042
-0.046
-0.048
-0.05
-0.057
-0.065
-0.072
-0.074
-0.072
-0.07
-0.068
-0.064
-0.055
-0.046
-0.039
-0.036
-0.035
-0.031
-0.031
-0.034
-0.041
-0.044
-0.045
-0.045
-0.047
-0.048
-0.042
-0.033
-0.024
-0.016
-0.011
-0.004
0.003
0.007
0.006
0.005
0.002
0
-0.003
-0.006
-0.008
-0.008
-0.003
-0.001
0.006
0.008
0.014
0.02
0.022
0.025
0.021
0.019
0.015
0.01
0.006
0
-0.005
-0.007
-0.007
-0.006
-0.005
0
0.006
0.01
0.015
0.02
0.023
0.027
0.029
0.028
0.025
0.021
0.019
0.019
0.017
0.017
0.02
0.026
0.036
0.045
0.057
0.07
0.082
0.094
0.101
0.108
0.114
0.118
0.119
0.121
0.125
0.134
0.145
0.156
0.169
0.184
0.205
0.225
0.242
0.256
0.271
0.288
0.301
0.311
0.317
0.327
0.339
0.351
0.362
0.369
0.379
0.393
0.406
0.413
0.415
0.416
0.42
0.417
0.408
0.396
0.385
0.377
0.367
0.356
0.348
0.344
0.344
0.343
0.34
0.338
0.338
0.335
0.329
0.317
0.307
0.294
0.28
0.264
0.248
0.235
0.224
0.213
0.204
0.196
0.192
0.188
0.182
0.175
0.166
0.157
0.147
0.134
0.118
0.103
0.09
0.079
0.067
0.057
0.049
0.045
0.043
0.041
0.041
0.041
0.042
0.043
0.042
0.038
0.034
0.029
0.024
0.016
0.008
0.001
-0.004
-0.005
-0.005
-0.005
-0.002
0.002
0.008
0.01
0.009
0.006
-0.001
-0.008
-0.019
-0.035
-0.053
-0.065
-0.074
-0.082
-0.09
-0.092
-0.087
-0.077
-0.063
-0.05
-0.031
-0.007
0.02
0.054
0.091
0.135
0.187
0.253
0.33
0.414
0.507
0.617
0.739
0.868
1.001
1.146
1.301
1.462
1.622
1.78
1.939
2.1
2.255
2.404
2.543
2.676
2.804
2.912
2.999
3.069
3.123
3.149
3.139
3.101
3.039
2.95
2.837
2.698
2.54
2.369
2.19
2.004
1.813
1.624
1.443
1.27
1.105
0.949
0.801
0.669
0.548
0.437
0.335
0.24
0.159
0.088
0.027
-0.026
-0.072
-0.106
-0.132
-0.151
-0.166
-0.175
-0.177
-0.174
-0.17
-0.166
-0.163
-0.157
-0.149
-0.145
-0.144
-0.145
-0.145
-0.141
-0.139
-0.134
-0.132
-0.124
-0.115
-0.105
-0.091
-0.082
-0.075
-0.067
-0.061
-0.058
-0.06
-0.063
-0.064
-0.064
-0.066
-0.069
-0.07
-0.065
-0.058
-0.051
-0.046
-0.041
-0.033
-0.028
-0.025
-0.025
-0.026
-0.027
-0.029
-0.034
-0.036
-0.037
-0.034
-0.03
-0.028
-0.022
-0.014
-0.006
0.002
0.006
0.009
0.011
0.013
0.013
0.011
0.009
0.014
0.02
0.025
0.029
0.036
0.049
0.062
0.072
0.077
0.085
0.093
0.096
0.097
0.09
0.088
0.088
0.087
0.085
0.083
0.087
0.095
0.103
0.109
0.117
0.127
0.14
0.149
0.154
0.158
0.163
0.168
0.169
0.168
0.17
0.173
0.178
0.182
0.185
0.189
0.199
0.21
0.219
0.226
0.234
0.245
0.252
0.256
0.257
0.26
0.262
0.263
0.262
0.262
0.265
0.269
0.275
0.282
0.29
0.298
0.308
0.315
0.321
0.326
0.331
0.333
0.334
0.336
0.337
0.341
0.347
0.356
0.368
0.378
0.392
0.407
0.422
0.436
0.446
0.455
0.463
0.468
0.47
0.473
0.475
0.48
0.485
0.491
0.498
0.508
0.523
0.539
0.552
0.562
0.572
0.582
0.59
0.595
0.596
0.599
0.603
0.609
0.615
0.622
0.636
0.65
0.667
0.682
0.696
0.711
0.725
0.74
0.749
0.757
0.764
0.77
0.777
0.782
0.788
0.796
0.805
0.815
0.822
0.831
0.844
0.856
0.866
0.873
0.877
0.883
0.887
0.891
0.889
0.887
0.887
0.887
0.886
0.884
0.884
0.889
0.895
0.898
0.903
0.909
0.916
0.921
0.92
0.916
0.912
0.907
0.898
0.886
0.873
0.864
0.857
0.848
0.837
0.83
0.828
0.825
0.818
0.805
0.794
0.783
0.766
0.746
0.72
0.697
0.674
0.65
0.626
0.601
0.582
0.564
0.546
0.527
0.504
0.484
0.464
0.44
0.412
0.381
0.351
0.321
0.29
0.262
0.235
0.212
0.193
0.174
0.157
0.141
0.127
0.112
0.096
0.077
0.056
0.035
0.014
-0.01
-0.033
-0.054
-0.073
-0.089
-0.104
-0.116
-0.127
-0.135
-0.142
-0.15
-0.159
-0.169
-0.18
-0.19
-0.201
-0.217
-0.229
-0.241
-0.248
-0.255
-0.262
-0.266
-0.266
-0.263
-0.26
-0.26
-0.259
-0.256
-0.254
-0.256
-0.261
-0.267
-0.271
-0.274
-0.28
-0.287
-0.293
-0.294
-0.293
-0.291
-0.291
-0.288
-0.28
-0.273
-0.268
-0.266
-0.263
-0.26
-0.258
-0.26
-0.265
-0.269
-0.267
-0.265
-0.265
-0.264
-0.261
-0.251
-0.242
-0.236
-0.233
-0.228
-0.223
-0.222
-0.226
-0.23
-0.235
-0.24
-0.244
-0.25
-0.251
-0.247
-0.242
-0.236
-0.232
-0.223
-0.214
-0.206
-0.202
-0.199
-0.198
-0.196
-0.197
-0.2
-0.204
-0.205
-0.201
-0.199
-0.197
-0.194
-0.188
-0.178
-0.173
-0.17
-0.169
-0.166
-0.163
-0.165
-0.168
-0.173
-0.174
-0.173
-0.173
-0.171
-0.169
-0.164
-0.158
-0.151
-0.147
-0.142
-0.138
-0.134
-0.134
-0.136
-0.138
-0.141
-0.141
-0.141
-0.143
-0.144
-0.145
-0.141
-0.135
-0.131
-0.127
-0.123
-0.118
-0.112
-0.111
-0.111
-0.11
-0.111
-0.112
-0.117
-0.122
-0.125
-0.127
-0.13
-0.132
-0.132
-0.128
-0.121
-0.112
-0.104
-0.099
-0.093
-0.088
-0.086
-0.089
-0.092
-0.095
-0.098
-0.102
-0.107
-0.11
-0.108
-0.104
-0.096
-0.092
-0.086
-0.077
-0.071
-0.07
-0.072
-0.075
-0.075
-0.08
-0.088
-0.094
-0.099
-0.099
-0.1
-0.102
-0.1
-0.095
-0.086
-0.082
-0.08
-0.081
-0.081
-0.081
-0.087
-0.095
-0.105
-0.108
-0.112
-0.116
-0.121
-0.121
-0.114
-0.107
-0.101
-0.1
-0.096
-0.089
-0.086
-0.085
-0.091
-0.094
-0.097
-0.101
-0.105
-0.112
-0.113
-0.111
-0.109
-0.108
-0.109
-0.105
-0.098
-0.095
-0.095
-0.099
-0.101
-0.103
-0.107
-0.112
-0.118
-0.121
-0.12
-0.12
-0.121
-0.12
-0.114
-0.107
-0.103
-0.101
-0.098
-0.094
-0.091
-0.092
-0.094
-0.098
-0.103
-0.106
-0.112
-0.118
-0.12
-0.121
-0.12
-0.118
-0.116
-0.109
-0.098
-0.093
-0.089
-0.088
-0.087
-0.085
-0.087
-0.092
-0.098
-0.1
-0.101
-0.102
-0.099
-0.097
-0.091
-0.083
-0.076
-0.071
-0.068
-0.064
-0.062
-0.062
-0.068
-0.074
-0.079
-0.08
-0.083
-0.083
-0.084
-0.083
-0.078
-0.071
-0.063
-0.06
-0.058
-0.056
-0.056
-0.057
-0.063
-0.069
-0.073
-0.079
-0.083
-0.086
-0.089
-0.086
-0.081
-0.076
-0.072
-0.068
-0.064
-0.06
-0.061
-0.065
-0.07
-0.076
-0.08
-0.088
-0.093
-0.096
-0.097
-0.095
-0.095
-0.093
-0.089
-0.085
-0.081
-0.08
-0.078
-0.079
-0.079
-0.079
-0.086
-0.091
-0.094
-0.096
-0.098
-0.1
-0.101
-0.097
-0.091
-0.085
-0.082
-0.078
-0.071
-0.065
-0.06
-0.061
-0.062
-0.062
-0.065
-0.07
-0.078
-0.083
-0.084
-0.084
-0.086
-0.087
-0.084
-0.074
-0.066
-0.063
-0.062
-0.06
-0.057
-0.057
-0.062
-0.069
-0.072
-0.073
-0.074
-0.078
-0.077
-0.071
-0.062
-0.055
-0.049
-0.042
-0.034
-0.028
-0.026
-0.029
-0.032
-0.036
-0.041
-0.046
-0.051
-0.054
-0.054
-0.055
-0.052
-0.049
-0.043
-0.038
-0.037
-0.037
-0.04
-0.042
-0.043
-0.051
-0.056
-0.062
-0.065
-0.065
-0.064
-0.059
-0.055
-0.047
-0.039
-0.032
-0.027
-0.024
-0.022
-0.02
-0.023
-0.028
-0.032
-0.037
-0.04
-0.044
-0.048
-0.05
-0.05
-0.046
-0.041
-0.039
-0.037
-0.035
-0.031
-0.028
-0.031
-0.035
-0.037
-0.035
-0.036
-0.04
-0.043
-0.04
-0.035
-0.03
-0.029
-0.025
-0.02
-0.013
-0.008
-0.009
-0.01
-0.009
-0.009
-0.013
-0.022
-0.031
-0.036
-0.04
-0.044
-0.051
-0.051
-0.045
-0.038
-0.029
-0.023
-0.017
-0.01
-0.004
-0.002
-0.006
-0.008
-0.009
-0.012
-0.017
-0.019
-0.019
-0.015
-0.011
-0.009
-0.002
0.005
0.013
0.014
0.015
0.016
0.015
0.013
0.007
0.004
0.003
0.003
0.006
0.009
0.015
0.025
0.037
0.047
0.055
0.06
0.066
0.072
0.072
0.07
0.066
0.065
0.065
0.066
0.067
0.071
0.081
0.092
0.104
0.117
0.129
0.144
0.159
0.17
0.18
0.189
0.197
0.206
0.216
0.227
0.237
0.251
0.266
0.282
0.299
0.313
0.328
0.34
0.352
0.36
0.364
0.366
0.367
0.367
0.363
0.359
0.355
0.356
0.356
0.354
0.353
0.354
0.357
0.359
0.356
0.352
0.347
0.34
0.329
0.312
0.295
0.279
0.262
0.246
0.226
0.212
0.201
0.193
0.187
0.178
0.172
0.169
0.164
0.155
0.142
0.131
0.12
0.107
0.09
0.072
0.058
0.051
0.04
0.031
0.023
0.021
0.025
0.026
0.025
0.022
0.023
0.025
0.02
0.014
0.008
0.004
0.001
-0.003
-0.008
-0.009
-0.008
-0.003
0
0.001
0.002
0.002
0
-0.005
-0.015
-0.025
-0.036
-0.047
-0.059
-0.071
-0.079
-0.083
-0.086
-0.088
-0.087
-0.081
-0.071
-0.061
-0.05
-0.033
-0.014
0.012
0.038
0.075
0.122
0.177
0.241
0.316
0.406
0.503
0.608
0.727
0.856
0.992
1.129
1.274
1.428
1.583
1.739
1.887
2.038
2.188
2.333
2.467
2.589
2.704
2.811
2.898
2.958
2.998
3.022
3.02
2.983
2.913
2.821
2.706
2.571
2.414
2.242
2.061
1.876
1.693
1.509
1.328
1.155
0.995
0.845
0.704
0.569
0.446
0.339
0.24
0.15
0.066
-0.007
-0.067
-0.117
-0.159
-0.196
-0.22
-0.233
-0.242
-0.246
-0.245
-0.242
-0.236
-0.231
-0.227
-0.225
-0.22
-0.214
-0.211
-0.207
-0.202
-0.195
-0.184
-0.172
-0.156
-0.142
-0.128
-0.115
-0.106
-0.096
-0.091
-0.086
-0.084
-0.084
-0.085
-0.085
-0.084
-0.081
-0.079
-0.075
-0.068
-0.061
-0.052
-0.045
-0.042
-0.039
-0.037
-0.036
-0.038
-0.042
-0.045
-0.047
-0.049
-0.048
-0.047
-0.044
-0.037
-0.03
-0.02
-0.014
-0.008
0.001
0.007
0.011
0.011
0.009
0.009
0.009
0.008
0.003
0
0.004
0.009
0.013
0.018
0.025
0.037
0.05
0.06
0.067
0.073
0.081
0.086
0.086
0.081
0.077
0.077
0.077
0.077
0.077
0.081
0.091
0.1
0.107
0.114
0.12
0.129
0.134
0.135
0.134
0.134
0.136
0.135
0.136
0.138
0.145
0.155
0.165
0.174
0.188
0.203
0.216
0.226
0.231
0.239
0.243
0.243
0.243
0.241
0.244
0.246
0.248
0.253
0.259
0.271
0.284
0.295
0.303
0.311
0.318
0.324
0.327
0.327
0.325
0.324
0.327
0.331
0.335
0.34
0.351
0.362
0.373
0.388
0.398
0.409
0.421
0.428
0.433
0.436
0.438
0.443
0.446
0.45
0.453
0.458
0.468
0.479
0.49
0.5
0.512
0.527
0.54
0.552
0.56
0.57
0.58
0.59
0.594
0.599
0.607
0.617
0.626
0.632
0.639
0.651
0.666
0.681
0.694
0.707
0.722
0.736
0.746
0.754
0.759
0.767
0.771
0.772
0.773
0.777
0.786
0.796
0.804
0.812
0.822
0.834
0.846
0.855
0.859
0.864
0.87
0.871
0.871
0.868
0.871
0.877
0.881
0.882
0.886
0.896
0.906
0.912
0.914
0.915
0.917
0.917
0.914
0.906
0.899
0.892
0.886
0.88
0.874
0.872
0.871
0.871
0.869
0.863
0.858
0.851
0.84
0.824
0.805
0.784
0.762
0.739
0.717
0.693
0.671
0.653
0.633
0.615
0.599
0.584
0.568
0.549
0.529
0.506
0.483
0.46
0.434
0.408
0.379
0.351
0.326
0.301
0.281
0.26
0.243
0.228
0.213
0.197
0.182
0.167
0.15
0.131
0.11
0.089
0.067
0.048
0.029
0.01
-0.008
-0.025
-0.038
-0.049
-0.058
-0.066
-0.073
-0.078
-0.084
-0.094
-0.104
-0.114
-0.125
-0.137
-0.154
-0.169
-0.18
-0.189
-0.195
-0.202
-0.206
-0.208
-0.207
-0.206
-0.21
-0.215
-0.217
-0.221
-0.226
-0.236
-0.244
-0.248
-0.25
-0.252
-0.256
-0.256
-0.25
-0.244
-0.237
-0.234
-0.231
-0.225
-0.223
-0.224
-0.23
-0.233
-0.235
-0.24
-0.245
-0.248
-0.248
-0.243
-0.239
-0.236
-0.23
-0.222
-0.215
-0.211
-0.21
-0.209
-0.207
-0.207
-0.21
-0.213
-0.216
-0.215
-0.212
-0.211
-0.211
-0.206
-0.197
-0.191
-0.187
-0.186
-0.182
-0.178
-0.179
-0.182
-0.186
-0.188
-0.19
-0.193
-0.195
-0.197
-0.195
-0.191
-0.186
-0.18
-0.176
-0.171
-0.166
-0.161
-0.158
-0.16
-0.161
-0.162
-0.165
-0.167
-0.173
-0.177
-0.178
-0.178
-0.177
-0.178
-0.175
-0.168
-0.159
-0.154
-0.151
-0.15
-0.148
-0.147
-0.152
-0.158
-0.165
-0.169
-0.171
-0.174
-0.178
-0.177
-0.171
-0.164
-0.16
-0.157
-0.154
-0.15
-0.148
-0.152
-0.157
-0.16
-0.165
-0.17
-0.177
-0.18
-0.178
-0.174
-0.17
-0.166
-0.159
-0.149
-0.143
-0.141
-0.141
-0.141
-0.142
-0.147
-0.154
-0.161
-0.164
-0.165
-0.168
-0.169
-0.17
-0.164
-0.156
-0.152
-0.148
-0.15
-0.149
-0.148
-0.152
-0.158
-0.165
-0.171
-0.174
-0.18
-0.185
-0.186
-0.184
-0.179
-0.176
-0.173
-0.17
-0.165
-0.161
-0.161
-0.163
-0.166
-0.171
-0.175
-0.179
-0.185
-0.188
-0.19
-0.19
-0.188
-0.187
-0.183
-0.179
-0.176
-0.173
-0.173
-0.173
-0.173
-0.173
-0.174
-0.179
-0.186
-0.191
-0.193
-0.195
-0.198
-0.199
-0.196
-0.191
-0.184
-0.181
-0.177
-0.17
-0.166
-0.164
-0.168
-0.173
-0.177
-0.181
-0.185
-0.192
-0.195
-0.195
-0.193
-0.191
-0.189
-0.185
-0.178
-0.174
-0.175
-0.176
-0.179
-0.179
-0.182
-0.19
-0.196
-0.199
-0.198
-0.197
-0.195
-0.192
-0.184
-0.172
-0.165
-0.162
-0.157
-0.151
-0.148
-0.151
-0.157
-0.165
-0.167
-0.17
-0.173
-0.179
-0.179
-0.175
-0.17
-0.166
-0.163
-0.158
-0.153
-0.151
-0.153
-0.159
-0.163
-0.165
-0.17
-0.175
-0.181
-0.182
-0.18
-0.177
-0.172
-0.168
-0.16
-0.153
-0.147
-0.141
-0.14
-0.137
-0.136
-0.138
-0.142
-0.144
-0.146
-0.145
-0.145
-0.144
-0.141
-0.14
-0.134
-0.13
-0.125
-0.123
-0.122
-0.12
-0.12
-0.122
-0.126
-0.13
-0.135
-0.139
-0.147
-0.15
-0.148
-0.145
-0.139
-0.134
-0.128
-0.118
-0.109
-0.101
-0.099
-0.098
-0.098
-0.1
-0.104
-0.112
-0.118
-0.119
-0.119
-0.121
-0.122
-0.119
-0.111
-0.103
-0.097
-0.095
-0.093
-0.09
-0.087
-0.088
-0.094
-0.1
-0.1
-0.102
-0.105
-0.107
-0.105
-0.096
-0.089
-0.084
-0.079
-0.075
-0.066
-0.062
-0.062
-0.065
-0.065
-0.067
-0.069
-0.072
-0.074
-0.071
-0.067
-0.063
-0.061
-0.057
-0.051
-0.048
-0.046
-0.049
-0.05
-0.05
-0.055
-0.06
-0.067
-0.07
-0.071
-0.071
-0.071
-0.071
-0.065
-0.058
-0.052
-0.048
-0.045
-0.041
-0.036
-0.036
-0.04
-0.043
-0.044
-0.044
-0.046
-0.048
-0.049
-0.046
-0.042
-0.039
-0.033
-0.029
-0.022
-0.016
-0.011
-0.008
-0.006
-0.004
-0.003
-0.003
-0.006
-0.011
-0.015
-0.016
-0.016
-0.016
-0.015
-0.012
-0.006
0.003
0.006
0.008
0.01
0.01
0.009
0.003
-0.003
-0.008
-0.013
-0.015
-0.02
-0.021
-0.019
-0.014
-0.005
0.001
0.006
0.011
0.015
0.017
0.013
0.008
0.002
-0.002
-0.007
-0.012
-0.016
-0.015
-0.012
-0.009
-0.007
-0.002
0.005
0.009
0.011
0.006
0.005
0.005
0.002
-0.004
-0.01
-0.01
-0.007
-0.005
-0.003
0.005
0.017
0.031
0.041
0.046
0.052
0.058
0.064
0.066
0.066
0.064
0.067
0.073
0.079
0.084
0.095
0.111
0.128
0.145
0.159
0.179
0.202
0.222
0.239
0.252
0.267
0.28
0.292
0.304
0.314
0.326
0.337
0.349
0.358
0.369
0.38
0.392
0.402
0.411
0.416
0.419
0.422
0.422
0.421
0.413
0.403
0.393
0.385
0.379
0.37
0.362
0.358
0.356
0.353
0.35
0.347
0.344
0.34
0.331
0.319
0.306
0.295
0.28
0.265
0.25
0.235
0.226
0.22
0.211
0.204
0.198
0.193
0.185
0.175
0.163
0.151
0.139
0.125
0.109
0.095
0.086
0.079
0.073
0.067
0.065
0.068
0.073
0.076
0.074
0.073
0.075
0.073
0.067
0.057
0.049
0.046
0.041
0.036
0.032
0.034
0.038
0.042
0.046
0.045
0.047
0.048
0.046
0.04
0.028
0.019
0.01
0.001
-0.011
-0.021
-0.025
-0.024
-0.02
-0.016
-0.005
0.012
0.033
0.055
0.081
0.115
0.156
0.204
0.255
0.318
0.392
0.475
0.567
0.669
0.781
0.9
1.029
1.168
1.316
1.467
1.624
1.781
1.936
2.089
2.236
2.374
2.504
2.625
2.734
2.824
2.899
2.962
3.004
3.018
3.004
2.969
2.914
2.83
2.722
2.59
2.443
2.281
2.108
1.928
1.742
1.558
1.381
1.208
1.044
0.887
0.742
0.612
0.492
0.381
0.28
0.19
0.112
0.043
-0.021
-0.078
-0.124
-0.159
-0.187
-0.208
-0.222
-0.228
-0.225
-0.219
-0.212
-0.204
-0.19
-0.177
-0.168
-0.164
-0.159
-0.151
-0.146
-0.142
-0.141
-0.135
-0.126
-0.116
-0.105
-0.094
-0.081
-0.067
-0.056
-0.046
-0.04
-0.032
-0.029
-0.028
-0.029
-0.032
-0.031
-0.03
-0.029
-0.028
-0.023
-0.015
-0.006
0.002
0.01
0.016
0.023
0.029
0.03
0.029
0.027
0.026
0.024
0.02
0.014
0.012
0.014
0.017
0.02
0.025
0.032
0.041
0.05
0.058
0.062
0.064
0.066
0.067
0.066
0.062
0.057
0.056
0.058
0.062
0.063
0.068
0.077
0.089
0.101
0.107
0.112
0.116
0.123
0.125
0.122
0.117
0.114
0.114
0.115
0.115
0.117
0.125
0.136
0.148
0.155
0.163
0.174
0.183
0.189
0.189
0.185
0.184
0.183
0.182
0.179
0.178
0.182
0.19
0.197
0.204
0.213
0.225
0.234
0.24
0.242
0.245
0.249
0.25
0.248
0.245
0.245
0.249
0.253
0.256
0.261
0.272
0.283
0.292
0.298
0.306
0.316
0.323
0.329
0.33
0.333
0.339
0.345
0.35
0.354
0.361
0.372
0.385
0.396
0.407
0.419
0.434
0.447
0.456
0.463
0.47
0.479
0.485
0.489
0.491
0.495
0.505
0.512
0.52
0.527
0.539
0.555
0.569
0.582
0.591
0.603
0.615
0.621
0.624
0.626
0.628
0.633
0.637
0.64
0.646
0.657
0.672
0.686
0.701
0.715
0.731
0.748
0.76
0.767
0.775
0.783
0.789
0.792
0.792
0.797
0.807
0.815
0.822
0.831
0.844
0.858
0.87
0.878
0.882
0.887
0.893
0.894
0.891
0.887
0.886
0.889
0.889
0.887
0.886
0.891
0.9
0.903
0.905
0.902
0.903
0.903
0.898
0.889
0.876
0.867
0.859
0.848
0.835
0.824
0.818
0.814
0.808
0.798
0.789
0.78
0.772
0.758
0.738
0.719
0.699
0.679
0.656
0.631
0.609
0.586
0.566
0.546
0.526
0.508
0.491
0.474
0.457
0.437
0.42
0.4
0.379
0.353
0.326
0.302
0.275
0.249
0.224
0.201
0.18
0.162
0.146
0.131
0.12
0.109
0.098
0.084
0.069
0.053
0.036
0.019
-0.001
-0.021
-0.04
-0.056
-0.071
-0.084
-0.095
-0.106
-0.114
-0.12
-0.127
-0.136
-0.144
-0.154
-0.162
-0.174
-0.187
-0.198
-0.209
-0.216
-0.223
-0.227
-0.23
-0.231
-0.227
-0.225
-0.225
-0.227
-0.228
-0.229
-0.233
-0.241
-0.25
-0.257
-0.262
-0.265
-0.268
-0.27
-0.268
-0.262
-0.255
-0.251
-0.247
-0.243
-0.237
-0.236
-0.239
-0.243
-0.246
-0.251
-0.255
-0.262
-0.268
-0.269
-0.266
-0.262
-0.26
-0.257
-0.248
-0.241
-0.233
-0.232
-0.23
-0.227
-0.226
-0.229
-0.232
-0.234
-0.231
-0.229
-0.23
-0.229
-0.223
-0.213
-0.206
-0.202
-0.197
-0.191
-0.185
-0.183
-0.185
-0.188
-0.189
-0.192
-0.197
-0.205
-0.209
-0.208
-0.208
-0.207
-0.209
-0.203
-0.194
-0.187
-0.183
-0.183
-0.18
-0.179
-0.182
-0.185
-0.193
-0.197
-0.199
-0.202
-0.205
-0.206
-0.203
-0.197
-0.192
-0.189
-0.188
-0.185
-0.182
-0.182
-0.184
-0.19
-0.196
-0.2
-0.205
-0.205
-0.208
-0.208
-0.203
-0.199
-0.193
-0.188
-0.184
-0.18
-0.179
-0.181
-0.185
-0.192
-0.196
-0.199
-0.204
-0.209
-0.213
-0.211
-0.207
-0.203
-0.198
-0.192
-0.185
-0.181
-0.18
-0.181
-0.182
-0.186
-0.191
-0.2
-0.208
-0.212
-0.215
-0.215
-0.217
-0.216
-0.212
-0.206
-0.2
-0.197
-0.196
-0.192
-0.192
-0.194
-0.2
-0.204
-0.207
-0.21
-0.213
-0.219
-0.222
-0.219
-0.216
-0.212
-0.212
-0.211
-0.204
-0.2
-0.196
-0.197
-0.199
-0.197
-0.199
-0.205
-0.212
-0.216
-0.216
-0.217
-0.222
-0.222
-0.219
-0.211
-0.206
-0.204
-0.204
-0.205
-0.203
-0.207
-0.214
-0.223
-0.23
-0.235
-0.241
-0.248
-0.25
-0.245
-0.24
-0.235
-0.231
-0.225
-0.216
-0.211
-0.209
-0.21
-0.211
-0.212
-0.216
-0.221
-0.226
-0.228
-0.226
-0.227
-0.225
-0.221
-0.214
-0.204
-0.198
-0.195
-0.193
-0.19
-0.186
-0.188
-0.191
-0.195
-0.197
-0.196
-0.197
-0.195
-0.192
-0.188
-0.183
-0.18
-0.177
-0.176
-0.175
-0.175
-0.178
-0.184
-0.192
-0.199
-0.202
-0.206
-0.209
-0.21
-0.21
-0.206
-0.201
-0.196
-0.194
-0.189
-0.187
-0.185
-0.186
-0.188
-0.191
-0.194
-0.196
-0.2
-0.205
-0.205
-0.204
-0.201
-0.199
-0.198
-0.193
-0.187
-0.181
-0.178
-0.176
-0.172
-0.17
-0.171
-0.175
-0.179
-0.181
-0.183
-0.186
-0.191
-0.192
-0.187
-0.181
-0.176
-0.173
-0.167
-0.16
-0.156
-0.155
-0.158
-0.16
-0.16
-0.165
-0.171
-0.176
-0.178
-0.174
-0.172
-0.171
-0.168
-0.159
-0.149
-0.143
-0.141
-0.14
-0.137
-0.137
-0.14
-0.147
-0.151
-0.151
-0.152
-0.154
-0.157
-0.154
-0.147
-0.14
-0.137
-0.136
-0.132
-0.13
-0.129
-0.131
-0.136
-0.14
-0.145
-0.148
-0.15
-0.151
-0.148
-0.143
-0.137
-0.131
-0.125
-0.118
-0.113
-0.109
-0.105
-0.108
-0.111
-0.112
-0.116
-0.118
-0.12
-0.123
-0.122
-0.121
-0.119
-0.114
-0.11
-0.105
-0.104
-0.101
-0.102
-0.103
-0.104
-0.105
-0.108
-0.113
-0.118
-0.119
-0.12
-0.121
-0.121
-0.119
-0.115
-0.108
-0.104
-0.096
-0.089
-0.081
-0.074
-0.074
-0.073
-0.071
-0.071
-0.074
-0.079
-0.084
-0.084
-0.082
-0.078
-0.076
-0.071
-0.06
-0.052
-0.047
-0.046
-0.045
-0.043
-0.044
-0.049
-0.06
-0.065
-0.069
-0.071
-0.073
-0.078
-0.079
-0.073
-0.069
-0.065
-0.066
-0.064
-0.062
-0.062
-0.068
-0.073
-0.078
-0.08
-0.085
-0.09
-0.093
-0.092
-0.085
-0.078
-0.073
-0.066
-0.059
-0.053
-0.05
-0.05
-0.05
-0.049
-0.051
-0.056
-0.062
-0.064
-0.062
-0.061
-0.059
-0.055
-0.047
-0.038
-0.029
-0.022
-0.015
-0.008
-0.004
-0.002
-0.003
-0.002
-0.001
0.004
0.006
0.011
0.016
0.027
0.04
0.053
0.064
0.074
0.086
0.096
0.102
0.11
0.113
0.117
0.122
0.126
0.131
0.137
0.147
0.16
0.173
0.187
0.203
0.219
0.24
0.26
0.276
0.29
0.302
0.312
0.32
0.324
0.324
0.325
0.328
0.331
0.331
0.331
0.336
0.342
0.348
0.349
0.347
0.345
0.34
0.333
0.32
0.305
0.29
0.277
0.264
0.252
0.239
0.232
0.228
0.223
0.218
0.213
0.208
0.202
0.194
0.18
0.166
0.151
0.134
0.117
0.098
0.082
0.071
0.063
0.054
0.046
0.042
0.042
0.039
0.033
0.025
0.019
0.013
0.002
-0.011
-0.023
-0.029
-0.033
-0.039
-0.043
-0.043
-0.04
-0.032
-0.028
-0.026
-0.023
-0.021
-0.021
-0.024
-0.031
-0.037
-0.038
-0.044
-0.05
-0.058
-0.063
-0.063
-0.065
-0.068
-0.073
-0.076
-0.077
-0.081
-0.085
-0.093
-0.099
-0.104
-0.109
-0.112
-0.112
-0.106
-0.092
-0.073
-0.05
-0.021
0.021
0.075
0.137
0.209
0.289
0.379
0.477
0.579
0.692
0.811
0.934
1.063
1.199
1.341
1.489
1.639
1.794
1.949
2.1
2.247
2.386
2.518
2.637
2.744
2.828
2.889
2.932
2.955
2.945
2.906
2.846
2.765
2.662
2.537
2.399
2.252
2.091
1.922
1.745
1.566
1.388
1.215
1.044
0.877
0.719
0.574
0.444
0.323
0.213
0.119
0.042
-0.026
-0.086
-0.139
-0.183
-0.217
-0.245
-0.271
-0.297
-0.316
-0.327
-0.334
-0.338
-0.34
-0.335
-0.323
-0.31
-0.297
-0.285
-0.269
-0.252
-0.238
-0.23
-0.221
-0.214
-0.206
-0.199
-0.198
-0.194
-0.189
-0.181
-0.174
-0.169
-0.163
-0.153
-0.143
-0.136
-0.133
-0.126
-0.12
-0.119
-0.118
-0.122
-0.122
-0.12
-0.119
-0.12
-0.122
-0.12
-0.117
-0.112
-0.108
-0.101
-0.091
-0.082
-0.076
-0.073
-0.07
-0.069
-0.068
-0.07
-0.072
-0.074
-0.073
-0.069
-0.065
-0.057
-0.051
-0.041
-0.028
-0.018
-0.007
-0.002
0.004
0.006
0.005
0.004
-0.001
-0.002
-0.002
-0.002
-0.002
0.001
0.007
0.015
0.026
0.035
0.041
0.048
0.054
0.058
0.058
0.056
0.055
0.056
0.059
0.06
0.062
0.068
0.076
0.088
0.097
0.106
0.117
0.126
0.134
0.135
0.135
0.136
0.135
0.134
0.132
0.132
0.137
0.145
0.152
0.159
0.169
0.184
0.195
0.204
0.209
0.216
0.225
0.228
0.23
0.228
0.229
0.234
0.238
0.242
0.246
0.254
0.266
0.276
0.284
0.294
0.306
0.318
0.327
0.332
0.337
0.345
0.352
0.355
0.358
0.362
0.368
0.377
0.385
0.395
0.408
0.424
0.439
0.452
0.464
0.478
0.491
0.501
0.508
0.513
0.518
0.525
0.534
0.544
0.554
0.565
0.581
0.598
0.616
0.631
0.646
0.66
0.67
0.68
0.686
0.692
0.697
0.703
0.71
0.717
0.725
0.738
0.752
0.768
0.781
0.794
0.807
0.82
0.831
0.837
0.842
0.847
0.851
0.852
0.855
0.859
0.868
0.877
0.884
0.892
0.902
0.914
0.923
0.928
0.93
0.934
0.936
0.935
0.929
0.924
0.924
0.923
0.921
0.919
0.92
0.926
0.93
0.93
0.928
0.927
0.928
0.924
0.914
0.901
0.889
0.879
0.865
0.849
0.83
0.816
0.804
0.791
0.778
0.764
0.75
0.737
0.722
0.702
0.68
0.658
0.636
0.609
0.58
0.549
0.521
0.496
0.47
0.445
0.422
0.402
0.386
0.37
0.355
0.339
0.322
0.304
0.284
0.262
0.237
0.21
0.184
0.159
0.134
0.11
0.09
0.072
0.059
0.045
0.035
0.024
0.013
0.002
-0.013
-0.028
-0.046
-0.065
-0.083
-0.101
-0.12
-0.134
-0.147
-0.157
-0.167
-0.173
-0.175
-0.177
-0.181
-0.186
-0.192
-0.196
-0.201
-0.209
-0.219
-0.228
-0.233
-0.237
-0.24
-0.245
-0.246
-0.243
-0.238
-0.238
-0.24
-0.239
-0.237
-0.238
-0.246
-0.253
-0.258
-0.259
-0.262
-0.265
-0.268
-0.265
-0.258
-0.252
-0.248
-0.245
-0.239
-0.234
-0.232
-0.233
-0.235
-0.235
-0.237
-0.241
-0.247
-0.248
-0.247
-0.245
-0.244
-0.242
-0.237
-0.229
-0.222
-0.218
-0.216
-0.21
-0.205
-0.201
-0.201
-0.205
-0.207
-0.208
-0.211
-0.216
-0.22
-0.22
-0.216
-0.213
-0.207
-0.201
-0.194
-0.187
-0.183
-0.179
-0.178
-0.18
-0.182
-0.186
-0.191
-0.196
-0.199
-0.2
-0.199
-0.196
-0.191
-0.184
-0.175
-0.168
-0.162
-0.159
-0.158
-0.158
-0.16
-0.163
-0.167
-0.171
-0.173
-0.174
-0.175
-0.174
-0.169
-0.163
-0.157
-0.154
-0.152
-0.15
-0.149
-0.151
-0.157
-0.164
-0.17
-0.175
-0.178
-0.183
-0.185
-0.182
-0.178
-0.174
-0.172
-0.17
-0.162
-0.158
-0.157
-0.161
-0.163
-0.162
-0.166
-0.169
-0.176
-0.177
-0.175
-0.173
-0.173
-0.172
-0.167
-0.159
-0.156
-0.156
-0.157
-0.156
-0.154
-0.157
-0.165
-0.171
-0.175
-0.177
-0.181
-0.186
-0.19
-0.189
-0.186
-0.184
-0.184
-0.183
-0.178
-0.174
-0.173
-0.175
-0.175
-0.175
-0.178
-0.183
-0.191
-0.194
-0.195
-0.195
-0.193
-0.191
-0.185
-0.177
-0.17
-0.165
-0.161
-0.16
-0.158
-0.161
-0.166
-0.172
-0.18
-0.184
-0.189
-0.189
-0.192
-0.192
-0.189
-0.184
-0.175
-0.173
-0.171
-0.168
-0.165
-0.165
-0.169
-0.173
-0.177
-0.181
-0.184
-0.186
-0.188
-0.185
-0.181
-0.176
-0.17
-0.167
-0.162
-0.158
-0.158
-0.159
-0.166
-0.168
-0.174
-0.181
-0.186
-0.19
-0.189
-0.19
-0.189
-0.186
-0.178
-0.17
-0.167
-0.165
-0.163
-0.159
-0.159
-0.163
-0.17
-0.173
-0.173
-0.175
-0.179
-0.182
-0.177
-0.172
-0.168
-0.165
-0.165
-0.161
-0.156
-0.155
-0.158
-0.163
-0.168
-0.171
-0.176
-0.182
-0.188
-0.191
-0.19
-0.19
-0.19
-0.188
-0.183
-0.176
-0.173
-0.173
-0.171
-0.169
-0.167
-0.169
-0.174
-0.179
-0.183
-0.185
-0.186
-0.189
-0.188
-0.184
-0.178
-0.172
-0.168
-0.161
-0.154
-0.149
-0.148
-0.151
-0.152
-0.151
-0.156
-0.159
-0.163
-0.164
-0.162
-0.158
-0.156
-0.152
-0.145
-0.14
-0.137
-0.136
-0.135
-0.136
-0.138
-0.145
-0.152
-0.158
-0.162
-0.163
-0.163
-0.161
-0.16
-0.154
-0.148
-0.143
-0.139
-0.137
-0.137
-0.134
-0.136
-0.14
-0.142
-0.144
-0.142
-0.143
-0.141
-0.137
-0.131
-0.122
-0.114
-0.108
-0.104
-0.101
-0.097
-0.097
-0.1
-0.106
-0.112
-0.115
-0.118
-0.122
-0.124
-0.123
-0.119
-0.112
-0.109
-0.103
-0.096
-0.089
-0.081
-0.081
-0.082
-0.082
-0.082
-0.083
-0.088
-0.093
-0.094
-0.095
-0.094
-0.096
-0.096
-0.09
-0.085
-0.079
-0.079
-0.077
-0.073
-0.071
-0.072
-0.079
-0.085
-0.088
-0.092
-0.096
-0.1
-0.101
-0.097
-0.092
-0.087
-0.08
-0.07
-0.06
-0.056
-0.056
-0.057
-0.057
-0.058
-0.064
-0.071
-0.075
-0.076
-0.074
-0.071
-0.07
-0.062
-0.05
-0.04
-0.034
-0.03
-0.026
-0.023
-0.023
-0.029
-0.037
-0.043
-0.045
-0.048
-0.051
-0.053
-0.049
-0.043
-0.035
-0.028
-0.022
-0.015
-0.01
-0.009
-0.011
-0.015
-0.019
-0.022
-0.027
-0.029
-0.033
-0.035
-0.033
-0.03
-0.024
-0.021
-0.018
-0.014
-0.011
-0.009
-0.01
-0.012
-0.015
-0.017
-0.021
-0.023
-0.024
-0.019
-0.015
-0.01
-0.003
0.004
0.017
0.028
0.037
0.043
0.049
0.056
0.06
0.061
0.061
0.063
0.066
0.069
0.07
0.076
0.084
0.094
0.106
0.117
0.131
0.147
0.163
0.177
0.186
0.194
0.204
0.212
0.218
0.221
0.227
0.239
0.248
0.259
0.267
0.281
0.299
0.313
0.323
0.328
0.335
0.341
0.343
0.34
0.334
0.33
0.328
0.324
0.32
0.318
0.319
0.322
0.322
0.322
0.321
0.319
0.316
0.309
0.297
0.284
0.269
0.256
0.24
0.226
0.214
0.205
0.199
0.191
0.185
0.182
0.178
0.17
0.161
0.148
0.137
0.125
0.11
0.095
0.08
0.067
0.056
0.048
0.041
0.037
0.036
0.035
0.034
0.033
0.03
0.028
0.023
0.017
0.008
-0.001
-0.01
-0.015
-0.021
-0.024
-0.029
-0.032
-0.03
-0.028
-0.025
-0.026
-0.025
-0.024
-0.025
-0.029
-0.036
-0.042
-0.049
-0.058
-0.069
-0.08
-0.091
-0.098
-0.104
-0.109
-0.113
-0.115
-0.113
-0.108
-0.103
-0.098
-0.091
-0.082
-0.069
-0.057
-0.04
-0.015
0.02
0.065
0.114
0.174
0.25
0.339
0.437
0.541
0.655
0.776
0.904
1.035
1.171
1.312
1.458
1.607
1.757
1.904
2.053
2.203
2.347
2.483
2.609
2.722
2.82
2.896
2.952
2.976
2.968
2.934
2.874
2.787
2.675
2.547
2.406
2.252
2.086
1.913
1.741
1.572
1.4
1.229
1.061
0.902
0.753
0.61
0.474
0.348
0.24
0.142
0.055
-0.024
-0.086
-0.135
-0.176
-0.212
-0.243
-0.264
-0.278
-0.287
-0.297
-0.305
-0.307
-0.307
-0.304
-0.302
-0.295
-0.286
-0.274
-0.259
-0.246
-0.23
-0.213
-0.196
-0.18
-0.168
-0.158
-0.149
-0.142
-0.137
-0.133
-0.132
-0.132
-0.13
-0.128
-0.126
-0.121
-0.116
-0.107
-0.099
-0.091
-0.082
-0.075
-0.068
-0.062
-0.061
-0.062
-0.066
-0.07
-0.073
-0.074
-0.077
-0.077
-0.072
-0.065
-0.06
-0.052
-0.043
-0.034
-0.027
-0.027
-0.025
-0.024
-0.022
-0.024
-0.029
-0.032
-0.032
-0.029
-0.026
-0.023
-0.017
-0.007
0.002
0.008
0.013
0.017
0.023
0.026
0.025
0.02
0.017
0.019
0.021
0.024
0.025
0.03
0.042
0.054
0.066
0.07
0.078
0.089
0.095
0.096
0.093
0.092
0.094
0.094
0.093
0.093
0.098
0.108
0.117
0.124
0.133
0.143
0.153
0.16
0.163
0.167
0.169
0.171
0.169
0.166
0.166
0.166
0.168
0.171
0.175
0.182
0.191
0.2
0.208
0.215
0.223
0.232
0.237
0.241
0.243
0.246
0.249
0.25
0.249
0.25
0.256
0.264
0.27
0.28
0.291
0.306
0.322
0.331
0.341
0.349
0.357
0.362
0.366
0.37
0.371
0.377
0.384
0.394
0.404
0.417
0.431
0.449
0.465
0.481
0.493
0.505
0.516
0.525
0.53
0.532
0.537
0.546
0.555
0.563
0.572
0.586
0.604
0.624
0.639
0.653
0.67
0.684
0.697
0.705
0.712
0.719
0.728
0.736
0.742
0.749
0.761
0.775
0.791
0.804
0.816
0.831
0.845
0.856
0.861
0.867
0.876
0.88
0.884
0.886
0.89
0.898
0.905
0.912
0.917
0.926
0.937
0.946
0.951
0.954
0.959
0.962
0.961
0.956
0.953
0.951
0.949
0.945
0.937
0.935
0.934
0.934
0.932
0.929
0.926
0.922
0.919
0.911
0.9
0.889
0.875
0.858
0.837
0.813
0.793
0.773
0.754
0.734
0.714
0.697
0.682
0.668
0.652
0.635
0.617
0.597
0.575
0.551
0.524
0.495
0.467
0.44
0.414
0.388
0.366
0.346
0.327
0.309
0.287
0.265
0.245
0.225
0.202
0.173
0.145
0.12
0.097
0.072
0.049
0.029
0.015
0.002
-0.011
-0.022
-0.031
-0.038
-0.049
-0.062
-0.079
-0.094
-0.105
-0.121
-0.138
-0.154
-0.167
-0.177
-0.186
-0.195
-0.202
-0.203
-0.204
-0.208
-0.217
-0.223
-0.228
-0.235
-0.244
-0.259
-0.27
-0.278
-0.283
-0.289
-0.294
-0.295
-0.29
-0.285
-0.282
-0.28
-0.275
-0.268
-0.264
-0.265
-0.268
-0.268
-0.269
-0.272
-0.275
-0.278
-0.279
-0.277
-0.275
-0.272
-0.268
-0.264
-0.257
-0.254
-0.251
-0.249
-0.247
-0.246
-0.248
-0.254
-0.259
-0.263
-0.266
-0.268
-0.27
-0.27
-0.268
-0.262
-0.255
-0.247
-0.24
-0.233
-0.228
-0.225
-0.226
-0.228
-0.23
-0.234
-0.239
-0.243
-0.244
-0.244
-0.242
-0.239
-0.235
-0.23
-0.225
-0.221
-0.218
-0.218
-0.22
-0.222
-0.225
-0.23
-0.237
-0.24
-0.24
-0.238
-0.235
-0.233
-0.227
-0.218
-0.208
-0.198
-0.198
-0.194
-0.191
-0.188
-0.192
-0.199
-0.202
-0.204
-0.205
-0.208
-0.212
-0.21
-0.204
-0.197
-0.195
-0.193
-0.191
-0.185
-0.185
-0.188
-0.193
-0.198
-0.199
-0.202
-0.208
-0.213
-0.212
-0.209
-0.206
-0.205
-0.202
-0.196
-0.191
-0.187
-0.189
-0.189
-0.187
-0.188
-0.191
-0.197
-0.201
-0.201
-0.202
-0.204
-0.204
-0.203
-0.198
-0.194
-0.191
-0.19
-0.186
-0.181
-0.181
-0.182
-0.187
-0.189
-0.192
-0.198
-0.205
-0.212
-0.216
-0.217
-0.217
-0.218
-0.216
-0.211
-0.206
-0.203
-0.204
-0.202
-0.202
-0.203
-0.209
-0.216
-0.221
-0.224
-0.225
-0.227
-0.226
-0.223
-0.218
-0.21
-0.203
-0.199
-0.195
-0.192
-0.192
-0.195
-0.201
-0.206
-0.211
-0.215
-0.215
-0.217
-0.216
-0.212
-0.204
-0.197
-0.191
-0.188
-0.185
-0.182
-0.181
-0.185
-0.189
-0.194
-0.198
-0.202
-0.207
-0.208
-0.207
-0.203
-0.196
-0.193
-0.188
-0.181
-0.175
-0.171
-0.171
-0.175
-0.177
-0.178
-0.185
-0.191
-0.197
-0.198
-0.198
-0.2
-0.2
-0.198
-0.192
-0.188
-0.185
-0.184
-0.181
-0.177
-0.178
-0.181
-0.185
-0.184
-0.184
-0.185
-0.188
-0.187
-0.18
-0.175
-0.17
-0.167
-0.159
-0.149
-0.144
-0.14
-0.141
-0.138
-0.14
-0.143
-0.151
-0.163
-0.17
